Energy(eV):Ch_12+14:Ch12_Run3:Ch14_Run3
0.1	2763.37	788.97	1974.4
0.3	17754.4	5451.4	12303
0.5	54912	17522	37390
0.7	100717	33045	67672
0.9	152354	50664	1.02E+05
1.1	178620	60560	1.18E+05
1.3	173667	59827	1.14E+05
1.5	142720	49018	93702
1.7	101025	34547	66478
1.9	65000	21743	43257
2.1	36909	12853	24056
2.3	18966.8	6430.8	12536
2.5	9144.4	3037.3	6107.1
2.7	4972.7	1295.6	3677.1
2.9	3214.69	621.79	2592.9
3.1	2768.79	391.19	2377.6
3.3	2759.7	322.7	2437
3.5	3001.33	343.43	2657.9
3.7	3257.45	380.55	2876.9
3.9	3790.14	482.14	3308
4.1	4182.7	576.4	3606.3
4.3	4810.02	693.92	4116.1
4.5	5457.08	825.38	4631.7
4.7	6268.57	981.57	5287
4.9	7084.8	1153.4	5931.4
5.1	8081.8	1234.9	6846.9
5.3	8932.1	1448.3	7483.8
5.5	10297.6	1670	8627.6
5.7	10996.1	1843.2	9152.9
5.9	12374.8	2143.8	10231
6.1	13229.8	2267.8	10962
6.3	14403.4	2568.4	11835
6.5	15449.9	2793.9	12656
6.7	16270	3103	13167
6.9	16716.6	3146.6	13570
7.1	17406.5	3376.5	14030
7.3	17806	3481	14325
7.5	18084.7	3692.7	14392
7.7	18396.7	3726.7	14670
7.9	18179.4	3790.4	14389
8.1	17936	3782	14154
8.3	18048	3895	14153
8.5	17450.6	3808.6	13642
8.7	17229.2	3872.2	13357
8.9	16490.3	3690.3	12800
9.1	16070.6	3610.6	12460
9.3	15887.5	3650.5	12237
9.5	15184.9	3539.9	11645
9.7	15151.1	3478.1	11673
9.9	14722.9	3448.9	11274
10.1	14878.6	3529.6	11349
10.3	14354	3391	10963
10.5	14921.3	3515.3	11406
10.7	14342.7	3551.7	10791
10.9	14793.3	3601.3	11192
11.1	14607.9	3653.9	10954
11.3	15232.7	3788.7	11444
11.5	15365.1	3825.1	11540
11.7	16080.8	4070.8	12010
11.9	16055.7	4122.7	11933
12.1	16721.4	4376.4	12345
12.3	16744.5	4311.5	12433
12.5	17075.1	4375.1	12700
12.7	17197.6	4535.6	12662
12.9	17667.8	4773.8	12894
13.1	17562.9	4658.9	12904
13.3	17805.6	4863.6	12942
13.5	17822.6	4697.6	13125
13.7	17844	4936	12908
13.9	17790	4740	13050
14.1	17932.8	4991.8	12941
14.3	17952.4	4926.4	13026
14.5	17953.8	5073.8	12880
14.7	17997.8	4957.8	13040
14.9	17847.8	5044.8	12803
15.1	17671.3	5034.3	12637
15.3	17607.3	5022.3	12585
15.5	17491.8	4931.8	12560
15.7	17379.6	4974.6	12405
15.9	17424.2	4921.2	12503
16.1	17067.1	4975.1	12092
16.3	17581	4974	12607
16.5	16773.7	4980.7	11793
16.7	17374.3	4964.3	12410
16.9	16839.8	4917.8	11922
17.1	17037.9	4798.9	12239
17.3	16701.7	4877.7	11824
17.5	16756.8	4896.8	11860
17.7	16506.4	4862.4	11644
17.9	16533.3	4762.3	11771
18.1	16240.2	4722.2	11518
18.3	16444.6	4916.6	11528
18.5	16195.9	4784.9	11411
18.7	16257.4	4928.4	11329
18.9	16132.6	4781.6	11351
19.1	16356	4900	11456
19.3	16001	4743	11258
19.5	16186.1	4809.1	11377
19.7	15931.5	4761.5	11170
19.9	15934.3	4778.3	11156
20.1	15993.6	4725.6	11268
20.3	15864.7	4769.7	11095
20.5	15923.1	4841.1	11082
20.7	15595.3	4714.3	10881
20.9	15654.3	4622.3	11032
21.1	15773.4	4802.4	10971
21.3	15488.5	4641.5	10847
21.5	15416.3	4803.3	10613
21.7	15209.8	4679.8	10530
21.9	15471.2	4747.2	10724
22.1	15310.5	4664.5	10646
22.3	15109.4	4598.4	10511
22.5	15177.3	4666.3	10511
22.7	14998.3	4581.3	10417
22.9	15107.6	4589.6	10518
23.1	15279.9	4734.9	10545
23.3	14796.7	4570.7	10226
23.5	14857	4628	10229
23.7	15001.4	4624.4	10377
23.9	14973.7	4614.7	10359
24.1	14815.1	4565.1	10250
24.3	14761	4381	10380
24.5	14849.4	4561.4	10288
24.7	14766.4	4536.4	10230
24.9	14839.3	4570.3	10269
25.1	14709.5	4424.5	10285
25.3	14801.1	4531.1	10270
25.5	14957.8	4524.8	10433
25.7	14924.6	4537.6	10387
25.9	14952.3	4522.3	10430
26.1	14655.1	4484.1	10171
26.3	14914.7	4527.7	10387
26.5	14864.4	4653.4	10211
26.7	14925.4	4649.4	10276
26.9	14777.2	4602.2	10175
27.1	15137.5	4603.5	10534
27.3	14916.6	4475.6	10441
27.5	14930.3	4688.3	10242
27.7	14774.9	4620.9	10154
27.9	14773	4505	10268
28.1	14760.1	4571.1	10189
28.3	14904.9	4658.9	10246
28.5	14843.2	4595.2	10248
28.7	14975.9	4619.9	10356
28.9	14989.2	4647.2	10342
29.1	14929.1	4566.1	10363
29.3	15066	4683	10383
29.5	15107.7	4561.7	10546
29.7	14949.7	4622.7	10327
29.9	14938.1	4493.1	10445
30.1	14946.6	4573.6	10373
30.3	14984.6	4472.6	10512
30.5	15086.9	4626.9	10460
30.7	14968.4	4489.4	10479
30.9	14813	4459	10354
31.1	15094.9	4579.9	10515
31.3	15056.3	4459.3	10597
31.5	14746.9	4445.9	10301
31.7	14771.3	4269.3	10502
31.9	14792	4470	10322
32.1	14876.4	4435.4	10441
32.3	14723.8	4449.8	10274
32.5	14708.4	4382.4	10326
32.7	14515.8	4335.8	10180
32.9	14640.7	4364.7	10276
33.1	14457.6	4347.6	10110
33.3	14439.2	4381.2	10058
33.5	14353.5	4259.5	10094
33.7	14394.4	4204.4	10190
33.9	14328.9	4271.9	10057
34.1	14056.1	4176.8	9879.3
34.3	14240.9	4299.7	9941.2
34.5	14174.5	4186.9	9987.6
34.7	13755.7	4098.8	9656.9
34.9	13691.9	4139.5	9552.4
35.1	13677.6	4023.6	9654
35.3	13589.4	3978.3	9611.1
35.5	13380.4	3957.2	9423.2
35.7	13421.3	4059.1	9362.2
35.9	13129.7	3933.4	9196.3
36.1	13129.3	3940.2	9189.1
36.3	12861.8	3779.2	9082.6
36.5	12950.2	3916.9	9033.3
36.7	12676.1	3803.7	8872.4
36.9	12646.8	3796.5	8850.3
37.1	12509.7	3660.3	8849.4
37.3	12411	3750.9	8660.1
37.5	12088.7	3577.2	8511.5
37.7	11872.9	3618.9	8254
37.9	12021.4	3536.5	8484.9
38.1	11864	3641.1	8222.9
38.3	11665.8	3473.2	8192.6
38.5	11487.2	3385.8	8101.4
38.7	11386	3421.4	7964.6
38.9	11120.2	3391.3	7728.9
39.1	11242.8	3435.8	7807
39.3	11032.9	3366.6	7666.3
39.5	10961.5	3297.6	7663.9
39.7	10675.5	3219.2	7456.3
39.9	10659.3	3203.3	7456
40.1	10349.1	3172.4	7176.7
40.3	10481.1	3289.9	7191.2
40.5	10270.6	3227.2	7043.4
40.7	10301.2	3249.4	7051.8
40.9	10042.8	3093.3	6949.5
41.1	9850.5	3108.8	6741.7
41.3	9608.4	2973.1	6635.3
41.5	9607.3	3002.9	6604.4
41.7	9487	2918.9	6568.1
41.9	9412.5	2936.3	6476.2
42.1	9231	2917.2	6313.8
42.3	9127.3	2877.5	6249.8
42.5	8934.8	2774.1	6160.7
42.7	9015.4	2755.2	6260.2
42.9	9081.6	2824.4	6257.2
43.1	8756.2	2710.1	6046.1
43.3	8684	2656.5	6027.5
43.5	8550.2	2682	5868.2
43.7	8637.7	2692.1	5945.6
43.9	8445.4	2718.2	5727.2
44.1	8498.9	2650.1	5848.8
44.3	8267.9	2569	5698.9
44.5	8270.7	2548.1	5722.6
44.7	7955.2	2501.5	5453.7
44.9	8121.9	2486.9	5635
45.1	7984.6	2565.1	5419.5
45.3	7978	2507.1	5470.9
45.5	7812.9	2408.6	5404.3
45.7	7878.9	2484.9	5394
45.9	7755.8	2373.1	5382.7
46.1	7919.5	2427	5492.5
46.3	7749.1	2388.6	5360.5
46.5	7717.5	2455.7	5261.8
46.7	7450.7	2379.3	5071.4
46.9	7701.1	2430.4	5270.7
47.1	7737.1	2465.1	5272
47.3	7736	2433.1	5302.9
47.5	7527.1	2375.6	5151.5
47.7	7737.9	2367.5	5370.4
47.9	7556.3	2320.2	5236.1
48.1	7682.6	2434.1	5248.5
48.3	7726	2398.6	5327.4
48.5	7727.1	2509.6	5217.5
48.7	7732	2407.6	5324.4
48.9	7833.1	2568.5	5264.6
49.1	7806.3	2523.6	5282.7
49.3	8030.9	2536.8	5494.1
49.5	8153.2	2597.1	5556.1
49.7	8323	2684.9	5638.1
49.9	8525.7	2742.7	5783
50.1	8616.5	2787.7	5828.8
50.3	9071.3	2868.3	6203
50.5	9198.3	3032.1	6166.2
50.7	9561.2	3103.9	6457.3
50.9	9998.8	3275.2	6723.6
51.1	10309.7	3334	6975.7
51.3	10800.4	3447.9	7352.5
51.5	11502.1	3718.3	7783.8
51.7	12024.6	3918.7	8105.9
51.9	13036.8	4289.7	8747.1
52.1	14051.7	4483.2	9568.5
52.3	14988.6	4739.6	10249
52.5	16018.3	5131.3	10887
52.7	17627.5	5511.5	12116
52.9	18989.3	5951.3	13038
53.1	20693	6446	14247
53.3	22133	6930	15203
53.5	24333.9	7544.9	16789
53.7	26169	7918	18251
53.9	28873.3	8795.3	20078
54.1	31442.4	9457.4	21985
54.3	34267	10250	24017
54.5	36956	10888	26068
54.7	40138	12066	28072
54.9	43132	12594	30538
55.1	46827	13701	33126
55.3	50505	14479	36026
55.5	54330	15726	38604
55.7	58062	16478	41584
55.9	61862	17736	44126
56.1	65498	18714	46784
56.3	70031	19815	50216
56.5	74258	20837	53421
56.7	77679	21902	55777
56.9	82123	22476	59647
57.1	85736	24029	61707
57.3	90294	24427	65867
57.5	92746	25559	67187
57.7	97609	26132	71477
57.9	100280	27347	72933
58.1	105014	28183	76831
58.3	107685	29072	78613
58.5	111857	30058	81799
58.7	114774	30824	83950
58.9	117545	31120	86425
59.1	119319	31930	87389
59.3	122946	32863	90083
59.5	124579	32893	91686
59.7	126671	33643	93028
59.9	128324	33435	94889
60.1	129788	34158	95630
60.3	129538	33904	95634
60.5	131660	34525	97135
60.7	131285	34131	97154
60.9	131627	34318	97309
61.1	130028	33780	96248
61.3	129471	33885	95586
61.5	128303	33238	95065
61.7	125858	33080	92778
61.9	124713	31950	92763
62.1	121686	31549	90137
62.3	119868	30693	89175
62.5	116780	30508	86272
62.7	115433	29084	86349
62.9	112158	29015	83143
63.1	109268	27503	81765
63.3	105549	27087	78462
63.5	102859	26239	76620
63.7	98793	25315	73478
63.9	96017	24555	71462
64.1	92032	23511	68521
64.3	88830	22697	66133
64.5	85799	22026	63773
64.7	83064	21328	61736
64.9	79636	20250	59386
65.1	76971	19343	57628
65.3	74402	18836	55566
65.5	71552	18185	53367
65.7	68684	17368	51316
65.9	66815	16806	50009
66.1	64117	16303	47814
66.3	62576	15905	46671
66.5	59540	15229	44311
66.7	58391	15047	43344
66.9	56468	14418	42050
67.1	54684	14131	40553
67.3	53716	13733	39983
67.5	52356	13613	38743
67.7	51297	13181	38116
67.9	50058	13004	37054
68.1	49325	12526	36799
68.3	48439	12631	35808
68.5	47707	12213	35494
68.7	46823	12441	34382
68.9	46214	12063	34151
69.1	46276	12303	33973
69.3	45636	12010	33626
69.5	45624	12020	33604
69.7	45087	11890	33197
69.9	45414	12123	33291
70.1	45185	12074	33111
70.3	45855	12210	33645
70.5	45751	12173	33578
70.7	46008	12166	33842
70.9	46748	12554	34194
71.1	46785	12608	34177
71.3	47283	12795	34488
71.5	47873	13180	34693
71.7	48505	13388	35117
71.9	49061	13444	35617
72.1	49781	13709	36072
72.3	50767	13872	36895
72.5	51850	14193	37657
72.7	52726	14422	38304
72.9	53903	14925	38978
73.1	55095	15141	39954
73.3	55878	15652	40226
73.5	57450	15811	41639
73.7	59231	16821	42410
73.9	60014	16619	43395
74.1	61708	17332	44376
74.3	62501	17439	45062
74.5	64358	17899	46459
74.7	65334	18283	47051
74.9	67357	18802	48555
75.1	68517	19060	49457
75.3	71031	20154	50877
75.5	71857	19998	51859
75.7	74157	20883	53274
75.9	75704	21047	54657
76.1	77871	21802	56069
76.3	79815	21879	57936
76.5	80719	22259	58460
76.7	82688	22842	59846
76.9	85248	23676	61572
77.1	86586	23684	62902
77.3	88724	24262	64462
77.5	90509	24757	65752
77.7	93022	25314	67708
77.9	94832	25523	69309
78.1	96689	25859	70830
78.3	98539	26694	71845
78.5	100688	27110	73578
78.7	102866	27471	75395
78.9	104179	27841	76338
79.1	106528	28658	77870
79.3	107359	28481	78878
79.5	109788	29380	80408
79.7	111374	29216	82158
79.9	113729	30280	83449
80.1	114692	30066	84626
80.3	117281	31108	86173
80.5	118168	30804	87364
80.7	121196	31842	89354
80.9	121142	31478	89664
81.1	123632	32190	91442
81.3	123834	31699	92135
81.5	126369	32710	93659
81.7	125887	32468	93419
81.9	127806	33279	94527
82.1	127808	32618	95190
82.3	130021	33545	96476
82.5	129087	32995	96092
82.7	131404	33753	97651
82.9	130909	33123	97786
83.1	131973	33731	98242
83.3	131165	33534	97631
83.5	131805	33749	98056
83.7	131311	33467	97844
83.9	132080	33652	98428
84.1	130685	33493	97192
84.3	130854	33034	97820
84.5	129008	32623	96385
84.7	129286	32576	96710
84.9	128800	32815	95985
85.1	127839	32337	95502
85.3	126976	32216	94760
85.5	125863	31879	93984
85.7	125028	32041	92987
85.9	123916	31226	92690
86.1	122969	31014	91955
86.3	121018	30525	90493
86.5	120763	30645	90118
86.7	118023	29760	88263
86.9	117239	29550	87689
87.1	114321	28562	85759
87.3	114038	29125	84913
87.5	111878	28333	83545
87.7	111271	28536	82735
87.9	108379	27125	81254
88.1	107607	27544	80063
88.3	105735	26570	79165
88.5	104523	26473	78050
88.7	102878	25915	76963
88.9	100946	25538	75408
89.1	99260	24773	74487
89.3	97723	24764	72959
89.5	95157	23974	71183
89.7	94421	23979	70442
89.9	92437	23386	69051
90.1	91521	23142	68379
90.3	90113	22697	67416
90.5	89160	22434	66726
90.7	86375	21816	64559
90.9	85943	21799	64144
91.1	84575	21177	63398
91.3	83565	20992	62573
91.5	81521	20541	60980
91.7	80479	20414	60065
91.9	78461	19749	58712
92.1	78325	19741	58584
92.3	76739	19591	57148
92.5	75722	19011	56711
92.7	74519	18856	55663
92.9	73252	18575	54677
93.1	72768	18477	54291
93.3	71219	18131	53088
93.5	70905	18305	52600
93.7	69932	17911	52021
93.9	69324	17808	51516
94.1	68464	17661	50803
94.3	67957	17665	50292
94.5	67414	17731	49683
94.7	66806	17513	49293
94.9	66143	17334	48809
95.1	66269	17647	48622
95.3	65795	17607	48188
95.5	66024	17849	48175
95.7	65615	17618	47997
95.9	66103	17673	48430
96.1	66762	18160	48602
96.3	67346	18522	48824
96.5	66771	18463	48308
96.7	68058	18732	49326
96.9	68543	19077	49466
97.1	69717	19704	50013
97.3	70277	19784	50493
97.5	71799	20403	51396
97.7	73316	20809	52507
97.9	75387	21527	53860
98.1	77267	22269	54998
98.3	79734	23131	56603
98.5	82447	23683	58764
98.7	85426	24864	60562
98.9	87958	25591	62367
99.1	91569	26558	65011
99.3	94747	27106	67641
99.5	99181	28539	70642
99.7	103342	29707	73635
99.9	108290	31352	76938
100.1	113288	32494	80794
100.3	118271	34316	83955
100.5	124783	35977	88806
100.7	130972	37564	93408
100.9	138572	39621	98951
101.1	145585	41235	1.04E+05
101.3	154360	44010	1.10E+05
101.5	161246	45476	1.16E+05
101.7	170477	48237	1.22E+05
101.9	179757	50907	1.29E+05
102.1	190075	53535	1.37E+05
102.3	200983	56793	1.44E+05
102.5	213257	59917	1.53E+05
102.7	225662	62812	1.63E+05
102.9	239770	66420	1.73E+05
103.1	254810	70790	1.84E+05
103.3	272179	75169	1.97E+05
103.5	289375	80385	2.09E+05
103.7	310566	85986	2.25E+05
103.9	331060	92160	2.39E+05
104.1	357044	98154	2.59E+05
104.3	381070	1.05E+05	2.76E+05
104.5	412150	1.14E+05	2.99E+05
104.7	440760	1.21E+05	3.20E+05
104.9	478910	1.32E+05	3.47E+05
105.1	515320	1.41E+05	3.74E+05
105.3	558050	1.53E+05	4.05E+05
105.5	603540	1.65E+05	4.39E+05
105.7	652680	1.77E+05	4.76E+05
105.9	706230	1.91E+05	5.15E+05
106.1	757520	2.05E+05	5.53E+05
106.3	815640	2.20E+05	5.95E+05
106.5	874300	2.36E+05	6.38E+05
106.7	936670	2.53E+05	6.84E+05
106.9	999450	2.69E+05	7.31E+05
107.1	1057910	2.84E+05	7.74E+05
107.3	1125180	3.01E+05	8.24E+05
107.5	1185370	3.17E+05	8.68E+05
107.7	1255980	3.37E+05	9.19E+05
107.9	1309880	3.48E+05	9.62E+05
108.1	1370150	3.65E+05	1.01E+06
108.3	1429280	3.79E+05	1.05E+06
108.5	1489160	3.97E+05	1.09E+06
108.7	1540380	4.07E+05	1.13E+06
108.9	1582420	4.19E+05	1.16E+06
109.1	1636510	4.28E+05	1.21E+06
109.3	1680120	4.43E+05	1.24E+06
109.5	1725910	4.51E+05	1.28E+06
109.7	1764260	4.61E+05	1.30E+06
109.9	1803310	4.67E+05	1.34E+06
110.1	1836370	4.79E+05	1.36E+06
110.3	1867800	4.85E+05	1.38E+06
110.5	1907810	4.96E+05	1.41E+06
110.7	1939410	5.00E+05	1.44E+06
110.9	1962520	5.08E+05	1.45E+06
111.1	1983000	5.12E+05	1.47E+06
111.3	2000850	5.18E+05	1.48E+06
111.5	2005120	5.16E+05	1.49E+06
111.7	2008610	5.18E+05	1.49E+06
111.9	2006430	5.15E+05	1.49E+06
112.1	1990550	5.18E+05	1.47E+06
112.3	1970670	5.06E+05	1.46E+06
112.5	1939480	5.00E+05	1.44E+06
112.7	1905610	4.89E+05	1.42E+06
112.9	1856520	4.78E+05	1.38E+06
113.1	1804760	4.65E+05	1.34E+06
113.3	1739850	4.48E+05	1.29E+06
113.5	1668190	4.30E+05	1.24E+06
113.7	1591010	4.10E+05	1.18E+06
113.9	1515410	3.92E+05	1.12E+06
114.1	1426220	3.69E+05	1.06E+06
114.3	1337420	3.49E+05	9.89E+05
114.5	1238390	3.22E+05	9.17E+05
114.7	1152660	3.03E+05	8.50E+05
114.9	1058710	2.76E+05	7.82E+05
115.1	976190	2.56E+05	7.20E+05
115.3	881930	2.31E+05	6.51E+05
115.5	805040	2.12E+05	5.93E+05
115.7	719040	1.89E+05	5.31E+05
115.9	649930	1.71E+05	4.79E+05
116.1	577330	1.51E+05	4.26E+05
116.3	517300	1.37E+05	3.81E+05
116.5	452840	1.20E+05	3.33E+05
116.7	403540	1.07E+05	2.97E+05
116.9	351882	92282	2.60E+05
117.1	310297	82237	2.28E+05
117.3	269322	71272	1.98E+05
117.5	235838	63008	1.73E+05
117.7	204934	53844	1.51E+05
117.9	179246	47706	1.32E+05
118.1	156384	41374	1.15E+05
118.3	136715	36555	1.00E+05
118.5	119004	31652	87352
118.7	103668	27882	75786
118.9	90669	24176	66493
119.1	80235	21476	58759
119.3	70629	18866	51763
119.5	62507	16787	45720
119.7	55735	14881	40854
119.9	49441	13307	36134
120.1	44982	12110	32872
120.3	40416	10967	29449
120.5	37263.2	9993.2	27270
120.7	34090.8	9219.8	24871
120.9	32144.6	8731.6	23413
121.1	29789	7983	21806
121.3	27846.9	7624.9	20222
121.5	26160.9	7263.9	18897
121.7	25153.4	6924.4	18229
121.9	23661.1	6492.1	17169
122.1	22658.2	6148.2	16510
122.3	21752.1	5892.1	15860
122.5	20999.6	5743.6	15256
122.7	20396.7	5591.7	14805
122.9	19993.6	5512.6	14481
123.1	19213.2	5211.2	14002
123.3	18877.4	5103.4	13774
123.5	18522.5	4988.5	13534
123.7	18271.7	5121.7	13150
123.9	17665.9	4803.9	12862
124.1	17463.2	4648.2	12815
124.3	16989.9	4501.9	12488
124.5	16751.3	4514.3	12237
124.7	16379.7	4368.7	12011
124.9	16299.2	4432.2	11867
125.1	16059.9	4336.9	11723
125.3	15610.6	4311.6	11299
125.5	15370.9	4090.9	11280
125.7	15116.2	4117.2	10999
125.9	14911	3905	11006
126.1	14596.8	3942.8	10654
126.3	14575.8	3921.8	10654
126.5	14368.7	3845.7	10523
126.7	14163.4	3716.4	10447
126.9	13882.6	3754.6	10128
127.1	13850	3638	10212
127.3	13445.9	3706.4	9739.5
127.5	13207.5	3482.6	9724.9
127.7	12749	3418.8	9330.2
127.9	12750.2	3482.2	9268
128.1	12446.8	3530.6	8916.2
128.3	12315.9	3354.2	8961.7
128.5	12099.8	3259.2	8840.6
128.7	11604	3105.5	8498.5
128.9	11416.7	3030.3	8386.4
129.1	11298.5	3038.5	8260
129.3	11186.7	3033.1	8153.6
129.5	11077.8	2989.5	8088.3
129.7	10689	2826.4	7862.6
129.9	10423.3	2810.9	7612.4
130.1	10073.2	2702.5	7370.7
130.3	10081.9	2709.3	7372.6
130.5	9841.9	2585.7	7256.2
130.7	9605.9	2575.8	7030.1
130.9	9475.3	2537.3	6938
131.1	9304.6	2485.6	6819
131.3	9266.9	2465.6	6801.3
131.5	8971.7	2451.5	6520.2
131.7	8747.6	2352.1	6395.5
131.9	8582.6	2400.9	6181.7
132.1	8198.7	2150	6048.7
132.3	8133.4	2181	5952.4
132.5	8053.4	2078.1	5975.3
132.7	7775.7	2135.5	5640.2
132.9	7666.9	2024.4	5642.5
133.1	7450.7	2055.6	5395.1
133.3	7374	1973.8	5400.2
133.5	7049.6	1987.4	5062.2
133.7	7128	1856.3	5271.7
133.9	7055.2	1944.5	5110.7
134.1	7106.2	1964.6	5141.6
134.3	6970.5	1896.3	5074.2
134.5	6685.7	1792.3	4893.4
134.7	6497.8	1790.4	4707.4
134.9	6546.5	1713.3	4833.2
135.1	6359.5	1723.6	4635.9
135.3	6146.1	1594.5	4551.6
135.5	6057.4	1639.8	4417.6
135.7	6084.9	1597.7	4487.2
135.9	5848.4	1597.6	4250.8
136.1	5890	1568.8	4321.2
136.3	5663.5	1474.8	4188.7
136.5	5607.2	1502.7	4104.5
136.7	5428.7	1471.7	3957
136.9	5451.1	1478.4	3972.7
137.1	5345.1	1412.8	3932.3
137.3	5166.5	1444.8	3721.7
137.5	5240.2	1403.6	3836.6
137.7	5168.1	1445	3723.1
137.9	5098.2	1373.3	3724.9
138.1	5011.5	1388.1	3623.4
138.3	4986.8	1337.9	3648.9
138.5	4807.8	1381.4	3426.4
138.7	4863.7	1319.3	3544.4
138.9	4679.5	1289.3	3390.2
139.1	4747.9	1306.6	3441.3
139.3	4696.1	1292.5	3403.6
139.5	4411.7	1180.5	3231.2
139.7	4477.8	1199.6	3278.2
139.9	4418.3	1184.7	3233.6
140.1	4422.6	1193.2	3229.4
140.3	4314.7	1162.6	3152.1
140.5	4250.9	1143.8	3107.1
140.7	4252.5	1206.7	3045.8
140.9	4274.8	1220.6	3054.2
141.1	4101.8	1133.6	2968.2
141.3	4028.6	1130.7	2897.9
141.5	4001.6	1121.5	2880.1
141.7	3917.5	1059.3	2858.2
141.9	4024.3	1076.9	2947.4
142.1	3994.4	1107.5	2886.9
142.3	3882.3	1095.4	2786.9
142.5	3830	1049.6	2780.4
142.7	3842.2	1098.5	2743.7
142.9	3710.4	1001	2709.4
143.1	3555.35	975.35	2580
143.3	3589.42	981.42	2608
143.5	3639.3	1003.7	2635.6
143.7	3700.43	985.73	2714.7
143.9	3439.65	971.05	2468.6
144.1	3422.65	940.35	2482.3
144.3	3474.25	950.05	2524.2
144.5	3495.93	942.73	2553.2
144.7	3429.19	974.99	2454.2
144.9	3324.78	942.28	2382.5
145.1	3421.75	933.65	2488.1
145.3	3301.76	884.16	2417.6
145.5	3237.58	897.58	2340
145.7	3195.34	869.54	2325.8
145.9	3178.98	894.28	2284.7
146.1	3179.6	842.6	2337
146.3	3075.28	835.98	2239.3
146.5	3044.73	860.83	2183.9
146.7	3048.85	832.55	2216.3
146.9	3086.56	871.46	2215.1
147.1	2953.26	818.86	2134.4
147.3	3003.18	843.88	2159.3
147.5	2982.08	876.78	2105.3
147.7	2983.08	806.68	2176.4
147.9	2867.65	791.45	2076.2
148.1	2859.03	820.63	2038.4
148.3	2879.04	820.24	2058.8
148.5	2828.16	770.26	2057.9
148.7	2835.58	800.78	2034.8
148.9	2743.31	750.21	1993.1
149.1	2777.12	760.92	2016.2
149.3	2721.19	766.59	1954.6
149.5	2718.28	772.98	1945.3
149.7	2660.34	725.04	1935.3
149.9	2744.58	752.68	1991.9
150.1	2662.7	722.9	1939.8
150.3	2715.83	743.43	1972.4
150.5	2662.67	725.87	1936.8
150.7	2582.8	640.2	1942.6
150.9	2573.92	684.62	1889.3
151.1	2571.19	694.89	1876.3
151.3	2668.59	721.69	1946.9
151.5	2517.27	701.47	1815.8
151.7	2483.27	681.47	1801.8
151.9	2564.32	688.92	1875.4
152.1	2428.74	665.34	1763.4
152.3	2465.84	632.94	1832.9
152.5	2358.17	661.17	1697
152.7	2309.4	624	1685.4
152.9	2409.78	665.28	1744.5
153.1	2421.81	679.81	1742
153.3	2359.49	648.69	1710.8
153.5	2359.99	661.39	1698.6
153.7	2360.77	643.67	1717.1
153.9	2307.42	642.42	1665
154.1	2279.27	600.77	1678.5
154.3	2237.48	636.58	1600.9
154.5	2180.32	601.12	1579.2
154.7	2185.95	572.25	1613.7
154.9	2195.83	590.53	1605.3
155.1	2253.89	607.69	1646.2
155.3	2173.51	575.71	1597.8
155.5	2179.04	621.34	1557.7
155.7	2114.69	590.19	1524.5
155.9	2151.97	597.77	1554.2
156.1	2201.63	593.23	1608.4
156.3	2101.1	597.3	1503.8
156.5	2132.35	565.55	1566.8
156.7	2072.67	559.07	1513.6
156.9	2117.22	595.12	1522.1
157.1	2083.39	581.89	1501.5
157.3	2062.64	573.34	1489.3
157.5	2089.65	546.95	1542.7
157.7	2066.82	550.32	1516.5
157.9	2014.45	543.95	1470.5
158.1	2046.74	590.44	1456.3
158.3	2062.45	556.35	1506.1
158.5	2009.79	553.79	1456
158.7	2044.85	570.35	1474.5
158.9	1992.33	562.43	1429.9
159.1	1971.16	557.76	1413.4
159.3	1991.9	535.3	1456.6
159.5	1954.72	541.12	1413.6
159.7	1972.81	525.21	1447.6
159.9	1960.18	540.98	1419.2
160.1	1928.32	544.22	1384.1
160.3	2005.49	562.29	1443.2
160.5	2035.4	571.6	1463.8
160.7	1998.95	517.85	1481.1
160.9	1983.56	494.76	1488.8
161.1	1869.69	501.89	1367.8
161.3	1931.3	534.6	1396.7
161.5	1903.77	510.67	1393.1
161.7	1941.91	516.71	1425.2
161.9	1897	476.6	1420.4
162.1	1888.17	525.67	1362.5
162.3	1884.42	528.42	1356
162.5	1878.01	489.91	1388.1
162.7	1853.3	492.6	1360.7
162.9	1885.65	491.35	1394.3
163.1	1813.72	508.12	1305.6
163.3	1867.07	518.67	1348.4
163.5	1825.11	482.21	1342.9
163.7	1792.05	475.85	1316.2
163.9	1886.07	517.17	1368.9
164.1	1910.95	521.05	1389.9
164.3	1908.08	492.98	1415.1
164.5	1904.2	488.9	1415.3
164.7	1840.6	484.3	1356.3
164.9	1796.02	476.82	1319.2
165.1	1899.8	519.9	1379.9
165.3	1856.33	464.73	1391.6
165.5	1795.56	503.06	1292.5
165.7	1894.34	502.74	1391.6
165.9	1825.32	472.82	1352.5
166.1	1860.16	492.16	1368
166.3	1790.81	464.71	1326.1
166.5	1895.32	474.82	1420.5
166.7	1809.29	485.29	1324
166.9	1893.53	499.53	1394
167.1	1804.18	469.68	1334.5
167.3	1800.92	446.02	1354.9
167.5	1769.24	453.64	1315.6
167.7	1835.33	471.63	1363.7
167.9	1847.28	514.28	1333
168.1	1894.17	525.87	1368.3
168.3	1927.55	533.65	1393.9
168.5	1795.14	466.44	1328.7
168.7	1764.35	495.15	1269.2
168.9	1923.87	516.67	1407.2
169.1	1819.8	460.9	1358.9
169.3	1817.72	454.42	1363.3
169.5	1810.88	455.18	1355.7
169.7	1882.26	501.96	1380.3
169.9	1830.86	465.16	1365.7
170.1	1843.22	488.82	1354.4
170.3	1828.14	466.74	1361.4
170.5	1893.99	467.29	1426.7
170.7	1850.33	486.13	1364.2
170.9	1780.59	456.89	1323.7
171.1	1816.53	462.13	1354.4
171.3	1811.91	446.61	1365.3
171.5	1840.6	467.3	1373.3
171.7	1910.38	473.48	1436.9
171.9	1845.36	475.46	1369.9
172.1	1860.17	493.17	1367
172.3	1903.07	492.57	1410.5
172.5	1947.76	500.36	1447.4
172.7	1951.43	477.23	1474.2
172.9	1873.43	461.83	1411.6
173.1	1932.96	460.66	1472.3
173.3	1912.52	480.92	1431.6
173.5	1908.97	495.17	1413.8
173.7	1886.41	467.31	1419.1
173.9	1997.46	497.26	1500.2
174.1	1902	462.9	1439.1
174.3	1938.97	516.37	1422.6
174.5	1958.79	470.49	1488.3
174.7	2008.11	453.81	1554.3
174.9	1873.32	441.02	1432.3
175.1	1960.01	480.81	1479.2
175.3	2016.7	486.4	1530.3
175.5	2011.49	497.19	1514.3
175.7	1988.2	482.9	1505.3
175.9	1968.47	485.77	1482.7
176.1	1978.93	458.43	1520.5
176.3	2068.97	495.27	1573.7
176.5	2026.74	477.24	1549.5
176.7	2066.02	501.52	1564.5
176.9	2010.94	474.84	1536.1
177.1	2051.57	509.07	1542.5
177.3	2034.63	490.73	1543.9
177.5	1967.24	457.84	1509.4
177.7	2019.99	469.99	1550
177.9	2117.52	493.32	1624.2
178.1	2017.64	470.34	1547.3
178.3	2102.12	472.92	1629.2
178.5	1981.13	452.43	1528.7
178.7	2067.94	495.14	1572.8
178.9	2011.82	466.72	1545.1
179.1	1997.4	468.8	1528.6
179.3	2000.79	457.99	1542.8
179.5	2016.52	489.32	1527.2
179.7	1975.54	473.54	1502
179.9	2006.72	454.02	1552.7
180.1	2056.67	471.37	1585.3
180.3	2036.73	487.43	1549.3
180.5	2018.02	471.32	1546.7
180.7	2127.89	507.59	1620.3
180.9	2012.83	474.43	1538.4
181.1	2021.41	467.61	1553.8
181.3	1998.73	479.43	1519.3
181.5	2007.13	477.73	1529.4
181.7	2035.77	489.87	1545.9
181.9	1977.67	475.27	1502.4
182.1	2116.69	513.69	1603
182.3	1966.81	448.51	1518.3
182.5	1988.76	448.96	1539.8
182.7	2019.79	473.79	1546
182.9	2015.63	440.13	1575.5
183.1	2076.44	462.74	1613.7
183.3	2088.01	431.91	1656.1
183.5	2070.04	488.34	1581.7
183.7	2049.34	485.34	1564
183.9	1958.26	449.26	1509
184.1	1919.87	444.67	1475.2
184.3	1970.4	452.3	1518.1
184.5	1944.99	477.39	1467.6
184.7	1929.37	463.37	1466
184.9	2010.73	468.93	1541.8
185.1	2026.07	472.47	1553.6
185.3	1926.63	458.43	1468.2
185.5	1978.44	450.54	1527.9
185.7	1948.5	470.7	1477.8
185.9	2027.73	488.23	1539.5
186.1	1989.09	487.49	1501.6
186.3	2035.82	448.72	1587.1
186.5	2033.36	505.76	1527.6
186.7	2018.92	470.52	1548.4
186.9	1985.7	467.4	1518.3
187.1	2040.26	485.36	1554.9
187.3	1990.27	483.27	1507
187.5	2042.96	476.66	1566.3
187.7	2040.04	487.84	1552.2
187.9	2024.04	492.64	1531.4
188.1	2077.07	492.57	1584.5
188.3	2107.46	500.26	1607.2
188.5	2060.52	499.12	1561.4
188.7	2141.13	522.73	1618.4
188.9	2119.03	521.43	1597.6
189.1	2068	487.2	1580.8
189.3	2046.85	500.15	1546.7
189.5	2150.75	530.25	1620.5
189.7	2151.01	546.11	1604.9
189.9	2215.04	559.84	1655.2
190.1	2215.15	542.15	1673
190.3	2255.17	519.97	1735.2
190.5	2390.67	613.27	1777.4
190.7	2310	566	1744
190.9	2433.46	601.16	1832.3
191.1	2420.32	585.02	1835.3
191.3	2390.63	595.03	1795.6
191.5	2555.1	633.5	1921.6
191.7	2527.55	654.95	1872.6
191.9	2561.59	636.59	1925
192.1	2643.14	673.84	1969.3
192.3	2680.02	674.02	2006
192.5	2735.73	705.03	2030.7
192.7	2739.87	674.77	2065.1
192.9	2877.28	736.88	2140.4
193.1	2995.02	720.12	2274.9
193.3	2993.79	693.19	2300.6
193.5	3062.04	749.34	2312.7
193.7	3218.28	764.38	2453.9
193.9	3207.46	830.66	2376.8
194.1	3287.76	830.96	2456.8
194.3	3409.18	885.48	2523.7
194.5	3551.83	878.83	2673
194.7	3606.66	911.16	2695.5
194.9	3629.95	887.95	2742
195.1	3737.9	947.3	2790.6
195.3	3917.69	981.39	2936.3
195.5	4033.9	1024.1	3009.8
195.7	4028	1016	3012
195.9	4104.8	1027.1	3077.7
196.1	4334.6	1074.1	3260.5
196.3	4299.2	1089.6	3209.6
196.5	4422.3	1140.1	3282.2
196.7	4439.8	1099	3340.8
196.9	4624.1	1096.4	3527.7
197.1	4703.1	1182.1	3521
197.3	4836.6	1215.3	3621.3
197.5	4859.7	1239.3	3620.4
197.7	5023.3	1236.9	3786.4
197.9	5047.1	1259.8	3787.3
198.1	5262.1	1305.6	3956.5
198.3	5243	1364.2	3878.8
198.5	5359.6	1324.8	4034.8
198.7	5330.6	1335.2	3995.4
198.9	5432.9	1332.9	4100
199.1	5572.7	1383.1	4189.6
199.3	5440.1	1328	4112.1
199.5	5765.5	1467.4	4298.1
199.7	5565.6	1400.8	4164.8
199.9	5748.3	1498.1	4250.2
200.1	5827.5	1467.6	4359.9
200.3	5752.8	1372.2	4380.6
200.5	5897.6	1457.4	4440.2
200.7	6006.8	1459.8	4547
200.9	6000.6	1535.5	4465.1
201.1	6025.7	1540.6	4485.1
201.3	5857	1460.2	4396.8
201.5	5883.4	1503.3	4380.1
201.7	5916.1	1511.6	4404.5
201.9	5851.8	1448	4403.8
202.1	5899.6	1433.9	4465.7
202.3	5958.3	1463.6	4494.7
202.5	5929.6	1450.3	4479.3
202.7	5934.3	1494.5	4439.8
202.9	6002.6	1461.1	4541.5
203.1	5894.9	1449.1	4445.8
203.3	5846.7	1503.3	4343.4
203.5	5725.8	1459.2	4266.6
203.7	5880.3	1474.2	4406.1
203.9	5873.9	1438.6	4435.3
204.1	5689.2	1393.1	4296.1
204.3	5680.2	1415.9	4264.3
204.5	5633.9	1399.5	4234.4
204.7	5642.4	1380.4	4262
204.9	5535	1327.7	4207.3
205.1	5431.1	1358.3	4072.8
205.3	5430.8	1395.2	4035.6
205.5	5304.5	1327.1	3977.4
205.7	5268.7	1264.9	4003.8
205.9	5123.3	1263.2	3860.1
206.1	5214	1261.1	3952.9
206.3	5063.9	1261.1	3802.8
206.5	4977.2	1211.2	3766
206.7	5134.3	1261.9	3872.4
206.9	4901.3	1247.2	3654.1
207.1	4865.9	1207.7	3658.2
207.3	4712	1134.2	3577.8
207.5	4666.4	1134.7	3531.7
207.7	4775.3	1133.6	3641.7
207.9	4604.9	1135.6	3469.3
208.1	4519.8	1126.3	3393.5
208.3	4507.6	1112.2	3395.4
208.5	4373.7	1057.9	3315.8
208.7	4433.5	1093.6	3339.9
208.9	4511.8	1121.3	3390.5
209.1	4479.7	1134.1	3345.6
209.3	4292.7	1049.7	3243
209.5	4255.9	1040.3	3215.6
209.7	4303.8	1051.3	3252.5
209.9	4288.3	1029.8	3258.5
210.1	4307.3	1003.9	3303.4
210.3	4172.19	965.49	3206.7
210.5	4212.8	1008.1	3204.7
210.7	4239.4	1017.5	3221.9
210.9	4269.9	1021.4	3248.5
211.1	4203.73	989.63	3214.1
211.3	4174.8	1004.1	3170.7
211.5	4145.53	967.83	3177.7
211.7	4155.07	963.97	3191.1
211.9	4136.8	993.5	3143.3
212.1	4039.44	942.64	3096.8
212.3	4020.63	952.53	3068.1
212.5	4134.35	952.45	3181.9
212.7	4113.1	1013.4	3099.7
212.9	4037.47	991.57	3045.9
213.1	3997.34	924.64	3072.7
213.3	3997.85	967.85	3030
213.5	4080.58	961.08	3119.5
213.7	4020.92	967.32	3053.6
213.9	3928.6	913.2	3015.4
214.1	3954.24	935.64	3018.6
214.3	3942.8	981.7	2961.1
214.5	3870.49	955.09	2915.4
214.7	3908.07	931.87	2976.2
214.9	3846.56	901.26	2945.3
215.1	3836.13	925.73	2910.4
215.3	3861.59	962.39	2899.2
215.5	3871.45	965.95	2905.5
215.7	3849.93	932.33	2917.6
215.9	3933.45	949.55	2983.9
216.1	3832.55	940.95	2891.6
216.3	3895.11	962.61	2932.5
216.5	3695.08	887.48	2807.6
216.7	3613.82	898.32	2715.5
216.9	3696.58	908.68	2787.9
217.1	3682.52	855.92	2826.6
217.3	3622.18	928.48	2693.7
217.5	3555.28	885.68	2669.6
217.7	3601.17	921.67	2679.5
217.9	3583.66	870.16	2713.5
218.1	3566.01	909.41	2656.6
218.3	3514.14	875.64	2638.5
218.5	3489.81	887.81	2602
218.7	3466.19	873.89	2592.3
218.9	3375.48	803.38	2572.1
219.1	3440.27	862.47	2577.8
219.3	3373.86	865.66	2508.2
219.5	3402.16	887.76	2514.4
219.7	3243.46	783.36	2460.1
219.9	3274.59	809.39	2465.2
220.1	3190.61	805.41	2385.2
220.3	3237.71	820.81	2416.9
220.5	3200.65	831.35	2369.3
220.7	3096.99	799.09	2297.9
220.9	3054.75	765.25	2289.5
221.1	3060.85	795.25	2265.6
221.3	3044.73	774.03	2270.7
221.5	3102.3	812.5	2289.8
221.7	2982.52	730.02	2252.5
221.9	2896.33	742.23	2154.1
222.1	2889.09	730.99	2158.1
222.3	2918.16	749.36	2168.8
222.5	2854.95	725.15	2129.8
222.7	2817.76	738.56	2079.2
222.9	2861.48	717.68	2143.8
223.1	2845.11	763.81	2081.3
223.3	2810.71	757.31	2053.4
223.5	2860.8	744.1	2116.7
223.7	2789.72	748.02	2041.7
223.9	2749.55	743.55	2006
224.1	2749.13	711.03	2038.1
224.3	2751.07	742.07	2009
224.5	2670.32	727.82	1942.5
224.7	2654.31	751.11	1903.2
224.9	2685.03	699.13	1985.9
225.1	2701.27	704.07	1997.2
225.3	2692.18	720.28	1971.9
225.5	2623.96	688.16	1935.8
225.7	2568.76	655.26	1913.5
225.9	2557.3	662.6	1894.7
226.1	2583.61	659.11	1924.5
226.3	2518.62	629.92	1888.7
226.5	2561.23	684.83	1876.4
226.7	2500.16	664.76	1835.4
226.9	2508.18	660.18	1848
227.1	2465.14	686.04	1779.1
227.3	2474.2	707.9	1766.3
227.5	2564.15	723.55	1840.6
227.7	2512.89	700.89	1812
227.9	2536.71	667.51	1869.2
228.1	2428.37	640.57	1787.8
228.3	2440.68	634.58	1806.1
228.5	2405.67	659.17	1746.5
228.7	2402.77	645.27	1757.5
228.9	2414.74	684.74	1730
229.1	2404.41	642.51	1761.9
229.3	2328.13	641.63	1686.5
229.5	2456.63	642.33	1814.3
229.7	2344.91	663.81	1681.1
229.9	2388.12	665.12	1723
230.1	2339.77	639.07	1700.7
230.3	2321.24	621.34	1699.9
230.5	2402.39	632.29	1770.1
230.7	2343.23	629.03	1714.2
230.9	2312.05	634.85	1677.2
231.1	2391.97	639.37	1752.6
231.3	2368.09	619.99	1748.1
231.5	2319.49	633.99	1685.5
231.7	2229.98	613.08	1616.9
231.9	2280.67	593.27	1687.4
232.1	2208.13	609.03	1599.1
232.3	2295.53	621.13	1674.4
232.5	2143.17	588.07	1555.1
232.7	2176.79	605.69	1571.1
232.9	2302.13	639.33	1662.8
233.1	2251.45	586.65	1664.8
233.3	2198.32	604.82	1593.5
233.5	2247.15	612.75	1634.4
233.7	2191.71	584.91	1606.8
233.9	2270.59	593.29	1677.3
234.1	2219.16	613.56	1605.6
234.3	2176.55	621.15	1555.4
234.5	2233.17	613.87	1619.3
234.7	2187.52	598.52	1589
234.9	2159.27	617.77	1541.5
235.1	2128.79	619.69	1509.1
235.3	2033.57	543.97	1489.6
235.5	2072.67	562.17	1510.5
235.7	2138.86	588.26	1550.6
235.9	2117.6	576.2	1541.4
236.1	2125.28	609.48	1515.8
236.3	2154.25	617.05	1537.2
236.5	2125.65	587.05	1538.6
236.7	2084.76	564.66	1520.1
236.9	2029.57	541.47	1488.1
237.1	2062.47	561.17	1501.3
237.3	2080.81	567.31	1513.5
237.5	2099.64	556.44	1543.2
237.7	2157.57	617.27	1540.3
237.9	2152.83	550.53	1602.3
238.1	2035.85	541.55	1494.3
238.3	2006.66	532.16	1474.5
238.5	2012.71	541.01	1471.7
238.7	2035.91	545.91	1490
238.9	2096.36	555.36	1541
239.1	2076.31	555.31	1521
239.3	2033.93	577.73	1456.2
239.5	2031.83	557.13	1474.7
239.7	2022.56	557.16	1465.4
239.9	2079.05	572.05	1507
240.1	2028.93	546.93	1482
240.3	1967.81	565.21	1402.6
240.5	1980.72	522.82	1457.9
240.7	2025.67	543.17	1482.5
240.9	1955.76	527.16	1428.6
241.1	1954.15	532.15	1422
241.3	2007.25	552.25	1455
241.5	1942.81	519.21	1423.6
241.7	1914.62	520.22	1394.4
241.9	1878.34	552.64	1325.7
242.1	1835.53	539.53	1296
242.3	1872.37	513.27	1359.1
242.5	1859.6	518.9	1340.7
242.7	1933.74	526.94	1406.8
242.9	1982.07	528.67	1453.4
243.1	1934.03	533.73	1400.3
243.3	1941.05	546.55	1394.5
243.5	2011.16	534.96	1476.2
243.7	1874.96	496.86	1378.1
243.9	1833.19	487.59	1345.6
244.1	1896.5	524.4	1372.1
244.3	1858.91	521.11	1337.8
244.5	1820.74	509.74	1311
244.7	1825.06	526.16	1298.9
244.9	1834.34	535.74	1298.6
245.1	1896.34	554.74	1341.6
245.3	1861.58	503.08	1358.5
245.5	1841.03	492.13	1348.9
245.7	1809.82	501.72	1308.1
245.9	1879.33	502.83	1376.5
246.1	1855.96	504.16	1351.8
246.3	1823.67	485.07	1338.6
246.5	1787.94	479.74	1308.2
246.7	1758.3	478.4	1279.9
246.9	1770.06	467.26	1302.8
247.1	1838.45	498.95	1339.5
247.3	1818.2	496.2	1322
247.5	1864.44	515.14	1349.3
247.7	1698.68	466.68	1232
247.9	1688.36	461.86	1226.5
248.1	1737.17	467.47	1269.7
248.3	1724.29	485.49	1238.8
248.5	1800.52	514.22	1286.3
248.7	1723.62	477.22	1246.4
248.9	1764.84	493.24	1271.6
249.1	1782.22	481.52	1300.7
249.3	1812.3	513	1299.3
249.5	1724.58	472.58	1252
249.7	1748.52	478.32	1270.2
249.9	1698.79	447.69	1251.1
250.1	1660.46	449.96	1210.5
250.3	1741.47	468.37	1273.1
250.5	1702.74	472.74	1230
250.7	1724.38	493.78	1230.6
250.9	1691.86	466.56	1225.3
251.1	1708.28	470.28	1238
251.3	1607.61	421.21	1186.4
251.5	1701.68	432.78	1268.9
251.7	1736.26	476.66	1259.6
251.9	1705.93	449.93	1256
252.1	1683.49	452.09	1231.4
252.3	1658.69	452.59	1206.1
252.5	1655.67	456.17	1199.5
252.7	1630.48	419.68	1210.8
252.9	1731.49	466.39	1265.1
253.1	1651.41	449.11	1202.3
253.3	1652.61	476.81	1175.8
253.5	1655.99	492.09	1163.9
253.7	1636.89	448.99	1187.9
253.9	1592.95	448.55	1144.4
254.1	1690.58	442.48	1248.1
254.3	1711.73	480.53	1231.2
254.5	1584.55	425.45	1159.1
254.7	1587.49	444.69	1142.8
254.9	1587.72	449.02	1138.7
255.1	1518.03	430.43	1087.6
255.3	1672.19	478.69	1193.5
255.5	1612.49	435.99	1176.5
255.7	1538.09	424.89	1113.2
255.9	1557.08	393.98	1163.1
256.1	1582.69	430.49	1152.2
256.3	1505.76	424.46	1081.3
256.5	1647.15	455.65	1191.5
256.7	1580.38	458.38	1122
256.9	1498.93	427.33	1071.6
257.1	1564.2	401.1	1163.1
257.3	1575.99	435.59	1140.4
257.5	1537.49	420.29	1117.2
257.7	1569.74	440.34	1129.4
257.9	1605.88	467.08	1138.8
258.1	1593.3	416.9	1176.4
258.3	1617.66	443.36	1174.3
258.5	1568.06	425.16	1142.9
258.7	1558.82	420.02	1138.8
258.9	1538.2	423.6	1114.6
259.1	1533.28	412.68	1120.6
259.3	1478.03	399.43	1078.6
259.5	1556.82	435.32	1121.5
259.7	1570.81	414.11	1156.7
259.9	1506.19	404.89	1101.3
260.1	1513.46	418.56	1094.9
260.3	1535.47	426.07	1109.4
260.5	1535.02	417.42	1117.6
260.7	1507.93	405.83	1102.1
260.9	1464.2	433.1	1031.1
261.1	1492.28	417.98	1074.3
261.3	1479.19	416.29	1062.9
261.5	1573.71	424.21	1149.5
261.7	1490.76	424.56	1066.2
261.9	1536.21	400.01	1136.2
262.1	1531.38	432.98	1098.4
262.3	1502.99	423.49	1079.5
262.5	1501.1	419.9	1081.2
262.7	1486.6	373.4	1113.2
262.9	1530.51	405.21	1125.3
263.1	1488.44	408.84	1079.6
263.3	1513.53	452.03	1061.5
263.5	1508.02	421.12	1086.9
263.7	1472.06	406.26	1065.8
263.9	1470.58	395.88	1074.7
264.1	1469.85	416.05	1053.8
264.3	1479.12	388.92	1090.2
264.5	1470.3	415.4	1054.9
264.7	1452.07	376.17	1075.9
264.9	1440.99	371.89	1069.1
265.1	1443.17	373.77	1069.4
265.3	1469.68	408.98	1060.7
265.5	1442.17	412.87	1029.3
265.7	1368.7	373.57	995.13
265.9	1459.06	383.86	1075.2
266.1	1435.62	404.62	1031
266.3	1411.25	350.65	1060.6
266.5	1453.3	394.5	1058.8
266.7	1452.35	396.15	1056.2
266.9	1452.57	390.87	1061.7
267.1	1387.84	364.74	1023.1
267.3	1403.17	392.97	1010.2
267.5	1391.34	401.64	989.7
267.7	1465.79	382.19	1083.6
267.9	1412.55	367.95	1044.6
268.1	1365.24	403.58	961.66
268.3	1403.89	386.49	1017.4
268.5	1417.61	379.61	1038
268.7	1347.72	364.72	983
268.9	1426.96	368.06	1058.9
269.1	1355	328.9	1026.1
269.3	1392.49	379.19	1013.3
269.5	1408.82	387.92	1020.9
269.7	1355.04	355.16	999.88
269.9	1346.92	355.55	991.37
270.1	1392.11	358.01	1034.1
270.3	1354.16	351.96	1002.2
270.5	1350.91	365.52	985.39
270.7	1366.16	381.02	985.14
270.9	1337.49	390.53	946.96
271.1	1336.95	377.01	959.94
271.3	1331.02	358.41	972.61
271.5	1331.52	366.73	964.79
271.7	1336.16	358.27	977.89
271.9	1314.82	356.6	958.22
272.1	1291.28	344.91	946.37
272.3	1347.68	388.08	959.6
272.5	1411.77	364.17	1047.6
272.7	1329.62	366.36	963.26
272.9	1309.27	346.91	962.36
273.1	1276.25	344.39	931.86
273.3	1272.48	334.02	938.46
273.5	1320.47	355.08	965.39
273.7	1275.18	344.97	930.21
273.9	1231.28	302.69	928.59
274.1	1234.53	348.41	886.12
274.3	1321.75	343.51	978.24
274.5	1288.84	338.03	950.81
274.7	1305.3	349.05	956.25
274.9	1242.82	343.02	899.8
275.1	1323.72	345.42	978.3
275.3	1257.89	332.65	925.24
275.5	1215.47	334.6	880.87
275.7	1241.91	346.38	895.53
275.9	1269.84	341.7	928.14
276.1	1178.81	316.35	862.46
276.3	1220.14	348.7	871.44
276.5	1254.71	355.8	898.91
276.7	1265.37	344.91	920.46
276.9	1254.83	348.58	906.25
277.1	1258.21	339.47	918.74
277.3	1224.75	319.76	904.99
277.5	1227.35	342.78	884.57
277.7	1201.62	321.03	880.59
277.9	1196.05	310.66	885.39
278.1	1241.42	329.53	911.89
278.3	1156.97	297.76	859.21
278.5	1209.92	336.47	873.45
278.7	1216.52	332.39	884.13
278.9	1215.41	312.78	902.63
279.1	1212.8	335.96	876.84
279.3	1144.77	308.86	835.91
279.5	1188.75	326.25	862.5
279.7	1238.65	340.54	898.11
279.9	1189.99	338.75	851.24
280.1	1160.22	316.8	843.42
280.3	1137.37	329.87	807.5
280.5	1149.45	319.18	830.27
280.7	1155.56	323.19	832.37
280.9	1188.14	334.56	853.58
281.1	1154.21	320.71	833.5
281.3	1161.39	280.19	881.2
281.5	1143.27	309.99	833.28
281.7	1146.83	314.08	832.75
281.9	1119.11	313.26	805.85
282.1	1111.44	291.33	820.11
282.3	1128.55	289.53	839.02
282.5	1160.59	310.29	850.3
282.7	1130.56	310.99	819.57
282.9	1171.8	319.12	852.68
283.1	1145.62	317.41	828.21
283.3	1109.62	308.26	801.36
283.5	1119.7	314.35	805.35
283.7	1116.96	332.79	784.17
283.9	1086.93	292.63	794.3
284.1	1113.19	293.56	819.63
284.3	1107.76	308.56	799.2
284.5	1088.31	265.64	822.67
284.7	1069.56	262.56	807
284.9	1143.71	312.16	831.55
285.1	1134.65	328.22	806.43
285.3	1091.22	304.2	787.02
285.5	1083.75	292.99	790.76
285.7	1021.96	289.83	732.13
285.9	1054.88	276.26	778.62
286.1	1073.32	285.48	787.84
286.3	1049.13	303.87	745.26
286.5	1069.42	303.82	765.6
286.7	1012.07	269.83	742.24
286.9	1037.7	281.73	755.97
287.1	1072.16	274.35	797.81
287.3	1101.17	294.65	806.52
287.5	1081.69	312.78	768.91
287.7	1066.92	281.62	785.3
287.9	1069.78	310.38	759.4
288.1	1069.42	320.88	748.54
288.3	1043.1	277.54	765.56
288.5	1086.09	316.49	769.6
288.7	1049.96	307.77	742.19
288.9	1055.2	290.09	765.11
289.1	1039.44	292.08	747.36
289.3	1077.22	298.15	779.07
289.5	1034.03	305.88	728.15
289.7	1033.08	291.51	741.57
289.9	1037.94	288.61	749.33
290.1	1067.87	276.99	790.88
290.3	1051.36	286.95	764.41
290.5	1039.8	300.79	739.01
290.7	1052.17	300.34	751.83
290.9	977.45	274.64	702.81
291.1	1050.19	315.24	734.95
291.3	1029.26	268	761.26
291.5	1001.94	258.85	743.09
291.7	1043.32	301.65	741.67
291.9	1054.23	283.35	770.88
292.1	982.46	261.56	720.9
292.3	984.03	264.46	719.57
292.5	993.82	287.5	706.32
292.7	1051.06	300.05	751.01
292.9	995.63	261.52	734.11
293.1	1018.62	294.8	723.82
293.3	1001.99	277.03	724.96
293.5	998.27	280.77	717.5
293.7	975.65	272.18	703.47
293.9	919.3	252.04	667.26
294.1	962.49	281.03	681.46
294.3	980.42	266.45	713.97
294.5	1002.9	285.84	717.06
294.7	986.43	284.77	701.66
294.9	1014.97	300.87	714.1
295.1	965.6	292.13	673.47
295.3	961.61	274.75	686.86
295.5	979.33	286.16	693.17
295.7	978.87	273.41	705.46
295.9	959.13	245.11	714.02
296.1	927.14	269.73	657.41
296.3	944.78	261.3	683.48
296.5	940.43	263.45	676.98
296.7	965.39	266.91	698.48
296.9	955.02	254.6	700.42
297.1	937.18	282.31	654.87
297.3	931.76	277.57	654.19
297.5	954.23	277.7	676.53
297.7	934	242.37	691.63
297.9	940.1	249.35	690.75
298.1	962.67	264.54	698.13
298.3	942.56	246.82	695.74
298.5	943.49	242.57	700.92
298.7	914.55	258.34	656.21
298.9	928.29	256.82	671.47
299.1	986.44	275.86	710.58
299.3	986.17	266.89	719.28
299.5	935.73	255.67	680.06
299.7	947.1	259.11	687.99
299.9	912.99	226.9	686.09
300.1	927.57	258.35	669.22
300.3	926.43	254.13	672.3
300.5	967.2	254.83	712.37
300.7	937.14	242.48	694.66
300.9	898.66	235.83	662.83
301.1	893.83	248.78	645.05
301.3	887.81	241.36	646.45
301.5	967.89	261.96	705.93
301.7	910.14	252.87	657.27
301.9	911.45	253.36	658.09
302.1	927.78	251.22	676.56
302.3	937.76	257.1	680.66
302.5	885.14	247.22	637.92
302.7	893.79	248.02	645.77
302.9	895.51	257.8	637.71
303.1	858.29	233.15	625.14
303.3	876.43	241.96	634.47
303.5	893.42	244.15	649.27
303.7	923.07	259.55	663.52
303.9	876.02	232.58	643.44
304.1	890.59	236.59	654
304.3	914.53	257.6	656.93
304.5	908.83	265.87	642.96
304.7	904.87	272.6	632.27
304.9	904.55	246.62	657.93
305.1	852.65	207.63	645.02
305.3	860.73	209	651.73
305.5	852.75	217.65	635.1
305.7	848.23	230.08	618.15
305.9	824.73	229.91	594.82
306.1	839.34	238.94	600.4
306.3	842.85	211.84	631.01
306.5	860.46	222.63	637.83
306.7	911.21	254.9	656.31
306.9	891.68	255.05	636.63
307.1	863.28	233.8	629.48
307.3	857.79	241.87	615.92
307.5	858.41	219.39	639.02
307.7	879.39	248.19	631.2
307.9	856.8	226.2	630.6
308.1	850.23	239.46	610.77
308.3	912.59	267.56	645.03
308.5	842.08	245.15	596.93
308.7	853.11	233.66	619.45
308.9	819.86	219.11	600.75
309.1	848.13	204.9	643.23
309.3	811.03	228.69	582.34
309.5	813.33	229.42	583.91
309.7	819.6	226.07	593.53
309.9	824.53	240.42	584.11
310.1	764.52	206.38	558.14
310.3	773.77	213.16	560.61
310.5	807.05	226.79	580.26
310.7	843.97	236.64	607.33
310.9	839	220.61	618.39
311.1	748.5	208.51	539.99
311.3	780.01	194.31	585.7
311.5	791.3	230.16	561.14
311.7	830.93	251.57	579.36
311.9	876.75	228.74	648.01
312.1	827.07	202.05	625.02
312.3	835.97	229.3	606.67
312.5	815.61	237.85	577.76
312.7	809.46	225.96	583.5
312.9	804.22	232.79	571.43
313.1	842.95	215.81	627.14
313.3	786.91	212.42	574.49
313.5	752.06	197.45	554.61
313.7	791.44	211.9	579.54
313.9	779.1	223.73	555.37
314.1	803.31	204.91	598.4
314.3	796.52	208.42	588.1
314.5	839.28	257.19	582.09
314.7	776.89	200.21	576.68
314.9	769.46	200.14	569.32
315.1	806.36	226.6	579.76
315.3	743.43	218.86	524.57
315.5	740.26	231.62	508.64
315.7	780.63	204.09	576.54
315.9	795.94	201.88	594.06
316.1	789.21	206.78	582.43
316.3	751.1	203.7	547.4
316.5	765.13	201.42	563.71
316.7	734.17	209.27	524.9
316.9	790.91	208.66	582.25
317.1	783.23	207.17	576.06
317.3	773.28	232.95	540.33
317.5	745.4	209.57	535.83
317.7	750.3	200.55	549.75
317.9	709.55	177.9	531.65
318.1	747.25	201.2	546.05
318.3	749.16	185.09	564.07
318.5	793.74	199.55	594.19
318.7	753.32	196.16	557.16
318.9	755.07	211.17	543.9
319.1	734.45	213.41	521.04
319.3	737.94	217.6	520.34
319.5	705.92	202.99	502.93
319.7	758.48	211.97	546.51
319.9	749.59	201.23	548.36
320.1	769.06	200.22	568.84
320.3	734.11	194.91	539.2
320.5	718.08	182.98	535.1
320.7	725.15	212.88	512.27
320.9	721.98	211.04	510.94
321.1	726.82	198.53	528.29
321.3	691.23	184.54	506.69
321.5	716.71	176.54	540.17
321.7	722.91	183.38	539.53
321.9	702.19	193.77	508.42
322.1	684.49	179.63	504.86
322.3	682.8	194.83	487.97
322.5	672.67	193.43	479.24
322.7	673.76	174.07	499.69
322.9	742.12	199.69	542.43
323.1	741.23	195.4	545.83
323.3	691.32	181.97	509.35
323.5	703.53	185.52	518.01
323.7	666.86	178.88	487.98
323.9	700.52	186.19	514.33
324.1	649.04	162.49	486.55
324.3	729.22	197.29	531.93
324.5	666.36	174.61	491.75
324.7	706.17	197.69	508.48
324.9	686.12	198.21	487.91
325.1	702.71	202.56	500.15
325.3	730.97	201.32	529.65
325.5	652.72	182.61	470.11
325.7	697.35	185.71	511.64
325.9	726.61	193.81	532.8
326.1	707.38	189.26	518.12
326.3	725.95	201.46	524.49
326.5	695.65	176.6	519.05
326.7	671.51	174.6	496.91
326.9	697.5	174.5	523
327.1	650.81	184.96	465.85
327.3	669.59	186.2	483.39
327.5	735.71	205.21	530.5
327.7	710.47	208.14	502.33
327.9	649.19	198.54	450.65
328.1	676.64	187.36	489.28
328.3	649.05	166.59	482.46
328.5	641.93	172.84	469.09
328.7	699.78	206.71	493.07
328.9	636.74	174.6	462.14
329.1	642.31	172.89	469.42
329.3	657.83	176.43	481.4
329.5	681.01	193.8	487.21
329.7	722.07	208.99	513.08
329.9	679.91	185.28	494.63
330.1	677.03	191.93	485.1
330.3	670.62	196.03	474.59
330.5	636.92	162.56	474.36
330.7	623.14	177.1	446.04
330.9	634.07	172.36	461.71
331.1	653.74	180.85	472.89
331.3	615.53	188.11	427.42
331.5	669.96	185.2	484.76
331.7	624.81	174.3	450.51
331.9	617.59	166.4	451.19
332.1	613.8	180.17	433.63
332.3	648.26	167.41	480.85
332.5	651.61	188.16	463.45
332.7	647.46	184.43	463.03
332.9	649.54	179.71	469.83
333.1	583.63	149.77	433.86
333.3	629.41	182.24	447.17
333.5	634.23	156.44	477.79
333.7	687.64	197.59	490.05
333.9	671.36	200.95	470.41
334.1	668.12	184.99	483.13
334.3	625.96	173.83	452.13
334.5	645.45	181.01	464.44
334.7	646.52	174.82	471.7
334.9	593.4	163.44	429.96
335.1	642.19	165.04	477.15
335.3	624.55	182.29	442.26
335.5	630.29	176.39	453.9
335.7	629.87	167.05	462.82
335.9	621.98	181.81	440.17
336.1	668.31	200.43	467.88
336.3	672.14	182.35	489.79
336.5	622.23	171.25	450.98
336.7	558.53	154.94	403.59
336.9	600.48	160.41	440.07
337.1	619.26	167.62	451.64
337.3	628.56	182.27	446.29
337.5	582.08	170	412.08
337.7	550.72	155.69	395.03
337.9	593.44	149.61	443.83
338.1	608.37	166.17	442.2
338.3	567.06	168.78	398.28
338.5	617.47	158.06	459.41
338.7	612.98	167.86	445.12
338.9	587.67	174.84	412.83
339.1	567.85	166.34	401.51
339.3	571.96	166.84	405.12
339.5	567.28	177.12	390.16
339.7	585.24	195.02	390.22
339.9	584.3	154.09	430.21
340.1	617.34	158.32	459.02
340.3	567.02	156.23	410.79
340.5	579.3	146.98	432.32
340.7	545.2	119.65	425.55
340.9	580.26	151.36	428.9
341.1	555.05	157.26	397.79
341.3	606.26	179.26	427
341.5	599.82	170.9	428.92
341.7	589	169.88	419.12
341.9	602.71	170.75	431.96
342.1	610.36	168.49	441.87
342.3	577.28	158.45	418.83
342.5	613.34	178.03	435.31
342.7	584.18	168.56	415.62
342.9	583.78	158.13	425.65
343.1	570.19	181.18	389.01
343.3	596.14	164.51	431.63
343.5	587.17	160.74	426.43
343.7	575.25	169.3	405.95
343.9	545.6	138.39	407.21
344.1	563.55	150.42	413.13
344.3	562.36	146.04	416.32
344.5	568.79	165.08	403.71
344.7	553.36	154.27	399.09
344.9	561.35	170.12	391.23
345.1	561.46	155.61	405.85
345.3	575.22	164.84	410.38
345.5	522.5	132.41	390.09
345.7	543.56	145.32	398.24
345.9	543.01	147.23	395.78
346.1	565.83	152.02	413.81
346.3	589.77	170.57	419.2
346.5	559.38	156.23	403.15
346.7	590.97	169.01	421.96
346.9	553.18	169.52	383.66
347.1	550.53	151.68	398.85
347.3	605.65	165.18	440.47
347.5	599.58	172.6	426.98
347.7	521.14	150.73	370.41
347.9	517.43	139.73	377.7
348.1	543.67	151.47	392.2
348.3	518.84	134.54	384.3
348.5	550.88	155.64	395.24
348.7	560.34	152.83	407.51
348.9	564.45	149.14	415.31
349.1	557.97	152.31	405.66
349.3	533.47	151.16	382.31
349.5	514.94	147.72	367.22
349.7	518.63	151.58	367.05
349.9	522.46	146.92	375.54
350.1	521.69	139.1	382.59
350.3	564.95	156.9	408.05
350.5	523.4	130.96	392.44
350.7	514.91	145.83	369.08
350.9	560.22	174.94	385.28
351.1	525.16	155.67	369.49
351.3	524.9	136.65	388.25
351.5	517.23	128.62	388.61
351.7	514.04	133.27	380.77
351.9	510.72	142.29	368.43
352.1	520.64	130.27	390.37
352.3	532.29	139.12	393.17
352.5	562.57	145.85	416.72
352.7	565.16	177.65	387.51
352.9	548.47	166.34	382.13
353.1	506.71	136.31	370.4
353.3	552.99	164.66	388.33
353.5	510.51	144.22	366.29
353.7	519.19	137.81	381.38
353.9	503.52	148.49	355.03
354.1	481.3	141.43	339.87
354.3	512.81	145.4	367.41
354.5	542.11	153.12	388.99
354.7	555.15	143.34	411.81
354.9	536.52	153.6	382.92
355.1	458.38	122.07	336.31
355.3	523.59	132.26	391.33
355.5	514.61	128.77	385.84
355.7	513.49	131.05	382.44
355.9	515.12	157.79	357.33
356.1	496.07	146.17	349.9
356.3	492.67	123.33	369.34
356.5	494	138.04	355.96
356.7	524.49	153.68	370.81
356.9	470.3	130.43	339.87
357.1	502.02	128.73	373.29
357.3	477.58	116.81	360.77
357.5	514.92	141.54	373.38
357.7	530.85	138.31	392.54
357.9	536.29	140.5	395.79
358.1	496.27	139.46	356.81
358.3	515.27	152.52	362.75
358.5	491.98	162.11	329.87
358.7	512.57	153.74	358.83
358.9	473.58	138.23	335.35
359.1	481.72	133	348.72
359.3	498.03	133.01	365.02
359.5	518.68	138.95	379.73
359.7	485.41	142.58	342.83
359.9	497.91	143.82	354.09
360.1	480.43	131.5	348.93
360.3	477.61	137.15	340.46
360.5	505.26	139.75	365.51
360.7	488.32	126.86	361.46
360.9	501.7	120.63	381.07
361.1	507.19	138.39	368.8
361.3	489.79	132.85	356.94
361.5	460.72	142.09	318.63
361.7	475.42	124.78	350.64
361.9	499.85	132.05	367.8
362.1	477.18	128.36	348.82
362.3	483.03	113.86	369.17
362.5	479.35	135.93	343.42
362.7	504.29	143.68	360.61
362.9	504.65	151.29	353.36
363.1	494.83	144.23	350.6
363.3	509.98	142.05	367.93
363.5	485.9	146.46	339.44
363.7	486.3	136.5	349.8
363.9	474.29	122.2	352.09
364.1	469.47	141.42	328.05
364.3	459.09	131.24	327.85
364.5	475.82	122.22	353.6
364.7	506.53	148.93	357.6
364.9	463.53	117.87	345.66
365.1	459.27	127.72	331.55
365.3	474.6	140.5	334.1
365.5	474.99	124.03	350.96
365.7	484.38	119.67	364.71
365.9	467.98	132.52	335.46
366.1	468.7	137.36	331.34
366.3	475.9	127.21	348.69
366.5	467.49	133.76	333.73
366.7	464.89	135.93	328.96
366.9	459.76	131.87	327.89
367.1	460.81	143.15	317.66
367.3	428.59	117.26	311.33
367.5	453.05	120.52	332.53
367.7	485.22	137.97	347.25
367.9	461.89	135	326.89
368.1	455.55	130.27	325.28
368.3	463.88	119.35	344.53
368.5	451.09	130.29	320.8
368.7	453.67	130.21	323.46
368.9	458.42	134.48	323.94
369.1	462.81	122.93	339.88
369.3	470.28	119.64	350.64
369.5	439.9	130.91	308.99
369.7	455.28	122.69	332.59
369.9	446.18	122.88	323.3
370.1	446.56	114.09	332.47
370.3	463.32	122.71	340.61
370.5	458.2	111.52	346.68
370.7	464.16	138.86	325.3
370.9	425.83	114.75	311.08
371.1	511.26	163.86	347.4
371.3	464.69	155.83	308.86
371.5	450.84	125.73	325.11
371.7	432.97	116.24	316.73
371.9	475.87	127.42	348.45
372.1	465.26	129.96	335.3
372.3	452.9	119.94	332.96
372.5	472.11	133.14	338.97
372.7	458.15	118.79	339.36
372.9	451.47	121.01	330.46
373.1	422.47	121.72	300.75
373.3	438.44	131	307.44
373.5	431.69	131.94	299.75
373.7	428.05	121.83	306.22
373.9	391.59	103.73	287.86
374.1	417.85	106.92	310.93
374.3	457.78	131.7	326.08
374.5	442.81	122.08	320.73
374.7	422.02	121.87	300.15
374.9	444.51	127.58	316.93
375.1	490.07	141.75	348.32
375.3	447.42	126.63	320.79
375.5	410.546	99.706	310.84
375.7	410.5	123.75	286.75
375.9	432.61	117.12	315.49
376.1	426.83	107.87	318.96
376.3	395.63	102.52	293.11
376.5	387.071	97.891	289.18
376.7	445.86	116.15	329.71
376.9	447.17	136.17	311
377.1	384.32	104.83	279.49
377.3	456	134.71	321.29
377.5	427.97	123	304.97
377.7	412.7	108.64	304.06
377.9	414	107.13	306.87
378.1	431.01	116.39	314.62
378.3	444.07	109.51	334.56
378.5	420.1	116.64	303.46
378.7	399.84	107.76	292.08
378.9	400.57	129.37	271.2
379.1	401.22	109.43	291.79
379.3	407.23	106.67	300.56
379.5	382.839	93.939	288.9
379.7	389.86	109.46	280.4
379.9	420.17	115.48	304.69
380.1	417.27	104.12	313.15
380.3	408.63	109.66	298.97
380.5	417.46	121.51	295.95
380.7	415.8	107.32	308.48
380.9	396.01	117.97	278.04
381.1	363.05	104.25	258.8
381.3	395.47	118.36	277.11
381.5	398.9	110.45	288.45
381.7	402.37	113.47	288.9
381.9	420.02	113.94	306.08
382.1	408.59	116.98	291.61
382.3	378.05	107.07	270.98
382.5	414.218	91.358	322.86
382.7	376.923	99.783	277.14
382.9	403.1	113.35	289.75
383.1	393.16	102.45	290.71
383.3	385.54	105.55	279.99
383.5	411.04	108.15	302.89
383.7	408.82	120.74	288.08
383.9	397.02	122.07	274.95
384.1	370.172	94.252	275.92
384.3	407.29	114.55	292.74
384.5	409.6	117.28	292.32
384.7	420.84	111.87	308.97
384.9	409.66	113.44	296.22
385.1	401.7	118.91	282.79
385.3	387.11	125.61	261.5
385.5	382.08	113.86	268.22
385.7	375.08	113.06	262.02
385.9	404.9	118.57	286.33
386.1	362.667	96.627	266.04
386.3	405.63	100.82	304.81
386.5	384.56	108.99	275.57
386.7	352.043	98.733	253.31
386.9	376.78	109.57	267.21
387.1	384.79	111.37	273.42
387.3	374.68	104.9	269.78
387.5	389.91	109.71	280.2
387.7	431.06	120.8	310.26
387.9	390.63	102.41	288.22
388.1	394.17	109.92	284.25
388.3	388.464	96.394	292.07
388.5	371.597	95.147	276.45
388.7	353.098	92.668	260.43
388.9	365.74	112.39	253.35
389.1	406.95	102.15	304.8
389.3	345.695	88.485	257.21
389.5	378.432	94.352	284.08
389.7	393.67	116.51	277.16
389.9	365.45	105.86	259.59
390.1	377.125	90.515	286.61
390.3	393.78	107.71	286.07
390.5	381.37	111.9	269.47
390.7	423.07	111.11	311.96
390.9	398.083	96.413	301.67
391.1	383.16	107.7	275.46
391.3	383.7	121.9	261.8
391.5	362.534	95.734	266.8
391.7	360.351	95.681	264.67
391.9	371.22	115.45	255.77
392.1	408.86	122.74	286.12
392.3	384.07	104.78	279.29
392.5	388.89	104.48	284.41
392.7	381.03	105.6	275.43
392.9	353.023	99.583	253.44
393.1	363.744	98.734	265.01
393.3	346.66	104.21	242.45
393.5	349.877	91.967	257.91
393.7	376.18	101.29	274.89
393.9	376.785	96.815	279.97
394.1	411.377	95.287	316.09
394.3	350.87	104.49	246.38
394.5	373.02	109.59	263.43
394.7	364.33	102.32	262.01
394.9	367.61	108.67	258.94
395.1	338.183	98.363	239.82
395.3	375.87	106.54	269.33
395.5	342.034	99.134	242.9
395.7	365.76	101.54	264.22
395.9	368.75	108.29	260.46
396.1	335.62	102.19	233.43
396.3	355.55	97.36	258.19
396.5	355.848	97.128	258.72
396.7	341.678	88.058	253.62
396.9	378.37	104.42	273.95
397.1	369.921	98.031	271.89
397.3	356.716	95.056	261.66
397.5	361.251	88.021	273.23
397.7	372.37	103.53	268.84
397.9	351.48	103.09	248.39
398.1	313.001	97.701	215.3
398.3	337.037	87.897	249.14
398.5	343.927	88.937	254.99
398.7	341.538	82.678	258.86
398.9	361.067	84.457	276.61
399.1	336.309	82.099	254.21
399.3	341.34	101.29	240.05
399.5	349.913	98.473	251.44
399.7	336.258	81.968	254.29
399.9	350.76	106.16	244.6
400.1	335.658	95.428	240.23
400.3	344.231	97.851	246.38
400.5	338.06	100.55	237.51
400.7	337.638	96.648	240.99
400.9	347.59	103.7	243.89
401.1	335.86	113.29	222.57
401.3	346.94	92.88	254.06
401.5	338.915	89.935	248.98
401.7	354.963	96.163	258.8
401.9	321.442	82.482	238.96
402.1	328.971	81.821	247.15
402.3	347.11	112.5	234.61
402.5	323.173	81.423	241.75
402.7	332.091	85.311	246.78
402.9	316.646	81.376	235.27
403.1	334.688	81.948	252.74
403.3	340.602	93.872	246.73
403.5	305.646	83.036	222.61
403.7	345.684	91.834	253.85
403.9	357	92.67	264.33
404.1	351.23	100.03	251.2
404.3	311.653	94.213	217.44
404.5	334.497	91.137	243.36
404.7	342.604	89.894	252.71
404.9	350.34	91.84	258.5
405.1	347.756	85.046	262.71
405.3	322.084	85.134	236.95
405.5	309.916	81.176	228.74
405.7	329.168	87.898	241.27
405.9	331.678	88.828	242.85
406.1	325.099	91.289	233.81
406.3	336.954	99.394	237.56
406.5	324.403	84.093	240.31
406.7	356.847	97.157	259.69
406.9	335.266	90.306	244.96
407.1	337.686	95.156	242.53
407.3	344.36	108.44	235.92
407.5	336.18	102.51	233.67
407.7	311.152	91.812	219.34
407.9	305.096	83.876	221.22
408.1	336.835	92.545	244.29
408.3	332.087	87.807	244.28
408.5	340.653	98.973	241.68
408.7	304.457	87.497	216.96
408.9	310.528	85.248	225.28
409.1	316.579	85.109	231.47
409.3	317.692	80.392	237.3
409.5	287.456	80.976	206.48
409.7	278.024	68.674	209.35
409.9	304.404	88.514	215.89
410.1	333.368	92.048	241.32
410.3	311.023	98.083	212.94
410.5	334.65	106.76	227.89
410.7	289.959	85.179	204.78
410.9	305.467	87.277	218.19
411.1	335.782	89.392	246.39
411.3	323.037	83.037	240
411.5	313.495	82.615	230.88
411.7	310.983	79.873	231.11
411.9	319.543	92.053	227.49
412.1	312.979	77.309	235.67
412.3	302.375	84.275	218.1
412.5	290.71	88.93	201.78
412.7	312.113	74.353	237.76
412.9	324.113	73.763	250.35
413.1	279.151	87.391	191.76
413.3	288.164	75.994	212.17
413.5	315.717	90.827	224.89
413.7	290.422	83.242	207.18
413.9	290.796	72.236	218.56
414.1	277.018	73.618	203.4
414.3	298.363	80.873	217.49
414.5	298.698	83.408	215.29
414.7	307.405	87.175	220.23
414.9	311.509	85.439	226.07
415.1	302.698	96.158	206.54
415.3	298.475	97.265	201.21
415.5	301.64	91.8	209.84
415.7	309.763	82.513	227.25
415.9	324.525	84.705	239.82
416.1	299.238	76.198	223.04
416.3	302.21	74.45	227.76
416.5	295.091	77.961	217.13
416.7	298.582	81.162	217.42
416.9	303.345	73.955	229.39
417.1	285.688	91.628	194.06
417.3	288.8	101.05	187.75
417.5	315.389	91.829	223.56
417.7	318.758	82.688	236.07
417.9	327.009	94.949	232.06
418.1	314.83	100.78	214.05
418.3	314.559	87.309	227.25
418.5	296.062	74.222	221.84
418.7	290.15	81.99	208.16
418.9	314.94	84.46	230.48
419.1	317.008	88.368	228.64
419.3	302.166	95.866	206.3
419.5	282.896	84.486	198.41
419.7	285.523	75.163	210.36
419.9	295.98	85.83	210.15
420.1	299.083	94.023	205.06
420.3	287.457	83.907	203.55
420.5	287.297	77.267	210.03
420.7	291.884	80.244	211.64
420.9	290.254	76.644	213.61
421.1	280.362	81.992	198.37
421.3	273.648	75.818	197.83
421.5	293.883	78.593	215.29
421.7	314.01	88.13	225.88
421.9	273.148	72.208	200.94
422.1	269.796	69.396	200.4
422.3	259.523	73.363	186.16
422.5	299.244	73.794	225.45
422.7	270.721	80.401	190.32
422.9	307.372	78.232	229.14
423.1	286.664	90.624	196.04
423.3	298.825	75.515	223.31
423.5	288.095	70.515	217.58
423.7	290.181	89.761	200.42
423.9	296.8	85.11	211.69
424.1	304.514	84.504	220.01
424.3	297.503	85.193	212.31
424.5	264.177	73.107	191.07
424.7	312.893	89.313	223.58
424.9	291.584	92.964	198.62
425.1	283.31	83.34	199.97
425.3	291.474	95.434	196.04
425.5	283.201	87.071	196.13
425.7	271.484	83.434	188.05
425.9	266.667	70.227	196.44
426.1	299.923	79.553	220.37
426.3	279.896	74.066	205.83
426.5	268.546	71.946	196.6
426.7	271.307	68.497	202.81
426.9	287.307	81.047	206.26
427.1	269.071	77.281	191.79
427.3	285.227	75.947	209.28
427.5	261.689	86.329	175.36
427.7	270.175	79.105	191.07
427.9	268.031	82.391	185.64
428.1	268.661	76.121	192.54
428.3	293.446	84.526	208.92
428.5	284.1	80.48	203.62
428.7	259.127	65.437	193.69
428.9	266.777	61.047	205.73
429.1	279.068	70.128	208.94
429.3	243.203	60.873	182.33
429.5	285.88	76.12	209.76
429.7	278.969	79.469	199.5
429.9	276.171	81.911	194.26
430.1	264.193	77.133	187.06
430.3	248.885	70.045	178.84
430.5	292.033	73.393	218.64
430.7	262.248	74.908	187.34
430.9	240.886	68.476	172.41
431.1	267.037	71.327	195.71
431.3	296.046	74.996	221.05
431.5	279.023	83.043	195.98
431.7	263.022	73.852	189.17
431.9	283.161	82.141	201.02
432.1	287.23	88.86	198.37
432.3	301.087	87.357	213.73
432.5	277.877	79.947	197.93
432.7	275.71	87.29	188.42
432.9	265.757	83.457	182.3
433.1	257.464	71.094	186.37
433.3	247.78	78.57	169.21
433.5	276.791	79.601	197.19
433.7	234.567	60.407	174.16
433.9	259.788	71.008	188.78
434.1	276.493	82.313	194.18
434.3	264.473	67.643	196.83
434.5	259.472	68.482	190.99
434.7	293.491	69.241	224.25
434.9	283.017	77.137	205.88
435.1	270.677	74.557	196.12
435.3	251.851	64.831	187.02
435.5	271.493	62.813	208.68
435.7	263.286	66.046	197.24
435.9	230.421	60.481	169.94
436.1	252.029	79.579	172.45
436.3	257.2	81.89	175.31
436.5	262.074	79.154	182.92
436.7	281.231	71.491	209.74
436.9	273.572	86.182	187.39
437.1	247.317	68.717	178.6
437.3	242.121	61.291	180.83
437.5	237.835	65.195	172.64
437.7	250.302	74.252	176.05
437.9	269.114	74.354	194.76
438.1	268.291	66.281	202.01
438.3	253.485	70.715	182.77
438.5	257.015	78.505	178.51
438.7	263.784	81.774	182.01
438.9	290.635	85.155	205.48
439.1	246.209	66.909	179.3
439.3	241.803	78.683	163.12
439.5	248.259	66.729	181.53
439.7	240.012	69.972	170.04
439.9	265.597	69.557	196.04
440.1	268.615	74.495	194.12
440.3	232.106	64.926	167.18
440.5	284.411	81.101	203.31
440.7	260.254	77.344	182.91
440.9	258.884	83.654	175.23
441.1	268.468	76.158	192.31
441.3	282.422	72.192	210.23
441.5	219.001	67.161	151.84
441.7	243.268	68.928	174.34
441.9	254.684	70.244	184.44
442.1	233.944	67.584	166.36
442.3	249.509	71.469	178.04
442.5	293.108	78.688	214.42
442.7	255.019	73.069	181.95
442.9	270.078	74.148	195.93
443.1	262.413	72.223	190.19
443.3	239.437	71.727	167.71
443.5	270.014	72.784	197.23
443.7	268.645	81.055	187.59
443.9	252.927	70.407	182.52
444.1	227.119	56.689	170.43
444.3	224.507	59.987	164.52
444.5	242.403	68.313	174.09
444.7	239.387	63.937	175.45
444.9	239.486	66.356	173.13
445.1	270.039	77.599	192.44
445.3	243.5	71.89	171.61
445.5	224.88	68.76	156.12
445.7	245.254	73.764	171.49
445.9	236.474	70.344	166.13
446.1	232.691	55.351	177.34
446.3	237.17	60.54	176.63
446.5	237.822	70.722	167.1
446.7	241.101	68.041	173.06
446.9	225.424	72.704	152.72
447.1	224.4	59.26	165.14
447.3	220.393	58.883	161.51
447.5	247.344	73.884	173.46
447.7	231.86	71.21	160.65
447.9	250.169	75.469	174.7
448.1	240.41	77.46	162.95
448.3	233.793	66.963	166.83
448.5	257.664	62.224	195.44
448.7	262.355	70.575	191.78
448.9	254.491	60.381	194.11
449.1	226.548	64.448	162.1
449.3	219.138	60.608	158.53
449.5	248.889	72.489	176.4
449.7	236.191	66.271	169.92
449.9	249.971	60.751	189.22
450.1	229.117	59.037	170.08
450.3	238.792	74.992	163.8
450.5	237.164	67.874	169.29
450.7	211.415	60.215	151.2
450.9	227.225	74.855	152.37
451.1	219.168	58.608	160.56
451.3	215.784	59.274	156.51
451.5	224.152	54.212	169.94
451.7	233.43	62.31	171.12
451.9	203.23	53.3	149.93
452.1	225.05	63.56	161.49
452.3	224.628	61.358	163.27
452.5	223.475	58.975	164.5
452.7	224.22	59.98	164.24
452.9	229.959	61.949	168.01
453.1	214.682	59.232	155.45
453.3	206.05	58.66	147.39
453.5	229.729	61.099	168.63
453.7	235.576	69.806	165.77
453.9	225.834	61.164	164.67
454.1	216.992	50.652	166.34
454.3	213.347	63.297	150.05
454.5	205.768	58.128	147.64
454.7	234.804	76.634	158.17
454.9	247.42	77.9	169.52
455.1	231.971	59.621	172.35
455.3	225.222	53.512	171.71
455.5	246.388	72.258	174.13
455.7	209.822	71.712	138.11
455.9	205.763	64.693	141.07
456.1	225.463	57.593	167.87
456.3	214.423	46.333	168.09
456.5	226.27	59.3	166.97
456.7	232.564	59.354	173.21
456.9	215.087	62.097	152.99
457.1	220.377	69.397	150.98
457.3	222.408	60.728	161.68
457.5	234.097	64.347	169.75
457.7	230.726	67.506	163.22
457.9	243.337	63.227	180.11
458.1	232.476	67.726	164.75
458.3	222.58	56.2	166.38
458.5	195.84	54.31	141.53
458.7	201.479	49.209	152.27
458.9	215.413	53.053	162.36
459.1	245.427	63.867	181.56
459.3	196.432	42.882	153.55
459.5	231.888	56.728	175.16
459.7	231.724	56.434	175.29
459.9	243.12	64.26	178.86
460.1	189.068	57.458	131.61
460.3	213.64	69.41	144.23
460.5	232.911	74.191	158.72
460.7	224.279	64.739	159.54
460.9	208.853	61.623	147.23
461.1	200.015	58.005	142.01
461.3	218.386	59.086	159.3
461.5	197.585	64.345	133.24
461.7	211.864	53.204	158.66
461.9	207.542	51.342	156.2
462.1	212.687	62.827	149.86
462.3	218.486	60.826	157.66
462.5	212.239	63.109	149.13
462.7	184.027	52.807	131.22
462.9	215.501	54.951	160.55
463.1	209.715	61.365	148.35
463.3	224.109	57.949	166.16
463.5	213.299	54.719	158.58
463.7	215.236	50.526	164.71
463.9	203.743	59.983	143.76
464.1	214.27	56.04	158.23
464.3	219.884	57.024	162.86
464.5	217.879	55.249	162.63
464.7	215.969	67.819	148.15
464.9	206.326	64.666	141.66
465.1	204.77	59.25	145.52
465.3	207.783	66.753	141.03
465.5	217.716	70.556	147.16
465.7	212.984	69.714	143.27
465.9	197.716	51.556	146.16
466.1	230.516	62.046	168.47
466.3	201.769	50.459	151.31
466.5	205.985	63.985	142
466.7	191.125	48.565	142.56
466.9	205.794	59.894	145.9
467.1	195.978	55.568	140.41
467.3	181.853	59.313	122.54
467.5	193.819	61.019	132.8
467.7	179.818	44.288	135.53
467.9	173.69	40.04	133.65
468.1	198.91	53.1	145.81
468.3	226.072	64.452	161.62
468.5	199.918	58.238	141.68
468.7	209.236	59.156	150.08
468.9	221.86	65.29	156.57
469.1	201.761	67.601	134.16
469.3	199.321	63.971	135.35
469.5	216.258	51.898	164.36
469.7	199.068	57.588	141.48
469.9	207.61	61.81	145.8
470.1	179.382	45.932	133.45
470.3	194.587	49.147	145.44
470.5	228.675	65.765	162.91
470.7	216.839	65.059	151.78
470.9	198.677	60.417	138.26
471.1	195.821	60.101	135.72
471.3	191.17	55.03	136.14
471.5	197.909	54.239	143.67
471.7	184.115	49.025	135.09
471.9	202.002	56.362	145.64
472.1	199.444	56.384	143.06
472.3	202.958	56.558	146.4
472.5	190.376	48.376	142
472.7	187.341	59.851	127.49
472.9	207.951	52.201	155.75
473.1	187.413	51.213	136.2
473.3	180.561	53.811	126.75
473.5	171.526	41.456	130.07
473.7	207.834	58.474	149.36
473.9	207.819	63.169	144.65
474.1	200.891	54.311	146.58
474.3	194.33	51.88	142.45
474.5	196.321	57.811	138.51
474.7	185.711	57.191	128.52
474.9	170.257	52.907	117.35
475.1	206.691	60.431	146.26
475.3	202.147	49.457	152.69
475.5	209.103	57.193	151.91
475.7	217.948	56.468	161.48
475.9	214.827	59.257	155.57
476.1	193.768	51.458	142.31
476.3	198.129	49.179	148.95
476.5	189.553	51.013	138.54
476.7	175.951	45.451	130.5
476.9	210.563	67.063	143.5
477.1	180.849	53.509	127.34
477.3	199.138	58.718	140.42
477.5	177.637	45.797	131.84
477.7	187.271	49.251	138.02
477.9	191.204	57.374	133.83
478.1	185.17	54.83	130.34
478.3	190.895	51.655	139.24
478.5	210.508	58.168	152.34
478.7	193.82	56.33	137.49
478.9	201.369	47.799	153.57
479.1	181.529	46.619	134.91
479.3	180.788	35.988	144.8
479.5	169.142	46.812	122.33
479.7	186.63	54.88	131.75
479.9	192.319	53.329	138.99
480.1	180.236	43.756	136.48
480.3	168.818	52.828	115.99
480.5	176.241	49.661	126.58
480.7	163.578	55.018	108.56
480.9	182.228	52.198	130.03
481.1	190.908	63.818	127.09
481.3	196.019	53.659	142.36
481.5	180.547	47.287	133.26
481.7	183.693	51.043	132.65
481.9	171.56	53.65	117.91
482.1	169.57	51.89	117.68
482.3	168.756	43.506	125.25
482.5	198.234	55.354	142.88
482.7	193.413	51.373	142.04
482.9	194.699	58.009	136.69
483.1	180.575	51.115	129.46
483.3	179.071	53.661	125.41
483.5	167.917	49.977	117.94
483.7	180.296	47.566	132.73
483.9	169.865	56.215	113.65
484.1	193.353	54.503	138.85
484.3	172.172	46.142	126.03
484.5	183.485	47.385	136.1
484.7	181.132	51.672	129.46
484.9	180.319	43.989	136.33
485.1	176.413	54.143	122.27
485.3	175.064	57.814	117.25
485.5	193.896	63.976	129.92
485.7	181.113	49.743	131.37
485.9	179.545	50.075	129.47
486.1	185.03	60.28	124.75
486.3	161.028	38.728	122.3
486.5	149.413	31.983	117.43
486.7	183.546	52.006	131.54
486.9	172.31	56.56	115.75
487.1	168.626	47.936	120.69
487.3	186.099	48.549	137.55
487.5	203.952	61.472	142.48
487.7	164.069	45.009	119.06
487.9	168.919	37.279	131.64
488.1	166.97	37.18	129.79
488.3	192.457	48.037	144.42
488.5	176.712	54.142	122.57
488.7	176.394	49.134	127.26
488.9	160.688	49.278	111.41
489.1	170.112	55.492	114.62
489.3	194.195	54.765	139.43
489.5	170.611	46.621	123.99
489.7	159.193	55.013	104.18
489.9	194.394	60.654	133.74
490.1	179.24	50.58	128.66
490.3	193.143	57.443	135.7
490.5	192.089	49.349	142.74
490.7	164.39	49.77	114.62
490.9	187.285	51.995	135.29
491.1	173.612	44.982	128.63
491.3	169.26	47.95	121.31
491.5	173.386	56.746	116.64
491.7	166.669	55.529	111.14
491.9	190.413	55.323	135.09
492.1	161.136	44.446	116.69
492.3	156.404	49.254	107.15
492.5	167.268	47.098	120.17
492.7	166.34	43.64	122.7
492.9	177.889	47.329	130.56
493.1	165.989	45.869	120.12
493.3	168.929	48.779	120.15
493.5	181.137	59.127	122.01
493.7	176.238	43.228	133.01
493.9	162.374	47.144	115.23
494.1	181.499	55.899	125.6
494.3	170.071	46.611	123.46
494.5	171.664	51.264	120.4
494.7	162.316	40.946	121.37
494.9	145.948	52.899	93.049
495.1	154.733	42.633	112.1
495.3	166.598	43.138	123.46
495.5	169.164	52.474	116.69
495.7	176.826	58.126	118.7
495.9	151.684	40.874	110.81
496.1	179.697	49.297	130.4
496.3	180.544	48.264	132.28
496.5	176.096	50.636	125.46
496.7	175.847	54.517	121.33
496.9	174.019	59.059	114.96
497.1	172.88	48.21	124.67
497.3	164.346	40.856	123.49
497.5	168.379	37.619	130.76
497.7	157.412	37.432	119.98
497.9	167.085	39.685	127.4
498.1	165.746	48.826	116.92
498.3	164.802	54.992	109.81
498.5	153.603	47.923	105.68
498.7	154.919	34.969	119.95
498.9	159.196	45.816	113.38
499.1	156.865	45.575	111.29
499.3	164.3	45.92	118.38
499.5	185.242	47.842	137.4
499.7	179.286	52.706	126.58
499.9	196.293	58.803	137.49
500.1	163.184	46.774	116.41
500.3	153.424	39.554	113.87
500.5	166.172	47.572	118.6
500.7	167.11	48.48	118.63
500.9	179.242	49.022	130.22
501.1	157.675	46.295	111.38
501.3	177.397	49.797	127.6
501.5	154.443	42.963	111.48
501.7	163.409	48.829	114.58
501.9	163.555	40.455	123.1
502.1	156.136	36.736	119.4
502.3	142.603	35.913	106.69
502.5	162.07	52.83	109.24
502.7	176.09	51.13	124.96
502.9	158.81	40.15	118.66
503.1	150.424	35.874	114.55
503.3	151.941	47.881	104.06
503.5	173.346	58.756	114.59
503.7	159.607	55.327	104.28
503.9	181.057	40.787	140.27
504.1	169.082	46.012	123.07
504.3	162.055	47.925	114.13
504.5	164.877	43.227	121.65
504.7	140.757	35.677	105.08
504.9	159.899	39.699	120.2
505.1	162.716	42.476	120.24
505.3	143.064	41.064	102
505.5	158.106	41.406	116.7
505.7	149.707	39.597	110.11
505.9	159.786	44.256	115.53
506.1	152.272	53.397	98.875
506.3	154.29	45.45	108.84
506.5	165.359	42.209	123.15
506.7	165.216	45.036	120.18
506.9	161.484	44.664	116.82
507.1	153.377	34.397	118.98
507.3	158.209	34.829	123.38
507.5	167.69	44.12	123.57
507.7	157.911	42.591	115.32
507.9	164.366	44.636	119.73
508.1	127.227	33.643	93.584
508.3	162.636	43.626	119.01
508.5	178.642	51.602	127.04
508.7	156.98	47.47	109.51
508.9	151.442	44.712	106.73
509.1	132.569	35.195	97.374
509.3	149.899	43.219	106.68
509.5	132.807	39.013	93.794
509.7	155.863	46.213	109.65
509.9	158.142	44.652	113.49
510.1	146.429	34.489	111.94
510.3	166.971	49.801	117.17
510.5	159.67	49.89	109.78
510.7	178.001	52.381	125.62
510.9	151.822	41.832	109.99
511.1	162.44	44.65	117.79
511.3	173.522	48.322	125.2
511.5	158.321	50.771	107.55
511.7	154.525	42.275	112.25
511.9	155.093	33.353	121.74
512.1	142.286	42.046	100.24
512.3	133.825	42.956	90.869
512.5	163.015	51.525	111.49
512.7	147.832	43.072	104.76
512.9	140.409	31.729	108.68
513.1	140.752	35.722	105.03
513.3	168.175	47.925	120.25
513.5	147.856	42.956	104.9
513.7	151.237	42.557	108.68
513.9	155.765	42.855	112.91
514.1	144.806	41.056	103.75
514.3	148.699	38.759	109.94
514.5	133.866	33.406	100.46
514.7	151.057	37.887	113.17
514.9	152.519	41.629	110.89
515.1	147.428	46.168	101.26
515.3	168.649	53.719	114.93
515.5	165.203	46.493	118.71
515.7	140.803	47.64	93.163
515.9	135.27	37.231	98.039
516.1	136.025	38.844	97.181
516.3	148.228	40.008	108.22
516.5	147.022	38.742	108.28
516.7	148.518	36.378	112.14
516.9	140.477	34.447	106.03
517.1	151.582	41.952	109.63
517.3	170.157	49.867	120.29
517.5	144.522	45.511	99.011
517.7	157.606	37.996	119.61
517.9	158.011	43.341	114.67
518.1	134.684	40.616	94.068
518.3	131.043	39.039	92.004
518.5	137.923	43.182	94.741
518.7	147.679	37.179	110.5
518.9	152.809	44.609	108.2
519.1	131.767	35.61	96.157
519.3	139.867	34.877	104.99
519.5	159.571	54.531	105.04
519.7	156.573	51.063	105.51
519.9	149.468	50.499	98.969
520.1	145.249	49.102	96.147
520.3	130.049	33.712	96.337
520.5	143.871	38.421	105.45
520.7	140.741	41.924	98.817
520.9	141.054	30.724	110.33
521.1	150.249	45.749	104.5
521.3	152.826	41.826	111
521.5	135.855	42.237	93.618
521.7	148.896	46.146	102.75
521.9	144.071	39.761	104.31
522.1	144.807	36.267	108.54
522.3	130.615	38.03	92.585
522.5	143.223	40.653	102.57
522.7	148.098	35.298	112.8
522.9	159.503	39.833	119.67
523.1	142.53	33.54	108.99
523.3	146.265	48.265	98
523.5	140.921	44.371	96.55
523.7	139.582	37.712	101.87
523.9	136.376	40.639	95.737
524.1	136.546	44.81	91.736
524.3	132.292	37.098	95.194
524.5	145.705	37.905	107.8
524.7	140.603	39.323	101.28
524.9	145.606	33.076	112.53
525.1	143.869	41.089	102.78
525.3	144.574	43.404	101.17
525.5	146.726	36.986	109.74
525.7	127.637	30.057	97.58
525.9	146.513	37.853	108.66
526.1	132.919	29.569	103.35
526.3	146.199	38.789	107.41
526.5	131.23	36.852	94.378
526.7	131.381	35.111	96.27
526.9	142.58	44.067	98.513
527.1	132.563	33.3	99.263
527.3	117.24	37.436	79.804
527.5	136.756	39.642	97.114
527.7	133.55	25.89	107.66
527.9	146.285	37.335	108.95
528.1	159.392	43.632	115.76
528.3	132.441	37.59	94.851
528.5	120.924	37.635	83.289
528.7	146.847	45.777	101.07
528.9	144.392	42.062	102.33
529.1	134.72	45.988	88.732
529.3	121.182	34.234	86.948
529.5	120.236	36.569	83.667
529.7	150.971	38.631	112.34
529.9	149.811	34.651	115.16
530.1	146.038	42.838	103.2
530.3	125.377	36.873	88.504
530.5	132.181	43.429	88.752
530.7	150.455	38.825	111.63
530.9	137.523	40.936	96.587
531.1	120.366	26.008	94.358
531.3	128.691	34.282	94.409
531.5	131.361	42.938	88.423
531.7	128.842	39.075	89.767
531.9	131.833	44.107	87.726
532.1	141.193	45.441	95.752
532.3	128.874	39.657	89.217
532.5	148.241	46.881	101.36
532.7	127.272	34.924	92.348
532.9	122.471	37.315	85.156
533.1	149.257	36.887	112.37
533.3	121.157	33.265	87.892
533.5	123.093	37.915	85.178
533.7	125.345	35.877	89.468
533.9	121.86	29.605	92.255
534.1	122.975	35.508	87.467
534.3	134.449	34.976	99.473
534.5	119.82	28.976	90.844
534.7	127.948	30.506	97.442
534.9	120.723	33.334	87.389
535.1	139.921	40.855	99.066
535.3	125.94	35.87	90.07
535.5	134.044	36.908	97.136
535.7	143.784	45.614	98.17
535.9	128.983	31.374	97.609
536.1	138.767	32.487	106.28
536.3	149.266	39.206	110.06
536.5	119.09	29.271	89.819
536.7	137.267	38.506	98.761
536.9	124.832	35.383	89.449
537.1	130.291	42.042	88.249
537.3	131.9	32.492	99.408
537.5	123.622	26.579	97.043
537.7	131.666	28.626	103.04
537.9	124.168	31.45	92.718
538.1	121.49	31.681	89.809
538.3	115.104	32.646	82.458
538.5	108.379	36.264	72.115
538.7	134.374	41.243	93.131
538.9	126.374	24.804	101.57
539.1	143.492	38.762	104.73
539.3	116.231	34.907	81.324
539.5	129.35	38.719	90.631
539.7	122.063	32.636	89.427
539.9	109.296	28.559	80.737
540.1	106.922	30.57	76.352
540.3	121.592	30.971	90.621
540.5	118.011	31.361	86.65
540.7	125.999	33.994	92.005
540.9	122.502	34.431	88.071
541.1	139.752	36.792	102.96
541.3	122.535	28.992	93.543
541.5	124.28	33.264	91.016
541.7	124.527	33.144	91.383
541.9	128.11	37.109	91.001
542.1	118.809	35.345	83.464
542.3	117.299	35.636	81.663
542.5	117.443	32.477	84.966
542.7	112.446	24.037	88.409
542.9	135.437	32.747	102.69
543.1	119.284	28.804	90.48
543.3	124.049	38.577	85.472
543.5	135.094	35.284	99.81
543.7	123.873	39.817	84.056
543.9	132.171	44.851	87.32
544.1	128.904	35.764	93.14
544.3	121.377	38.086	83.291
544.5	119.803	33.152	86.651
544.7	112.868	28.816	84.052
544.9	104.908	22.789	82.119
545.1	114.67	28.995	85.675
545.3	115.166	26.27	88.896
545.5	121.027	33.204	87.823
545.7	131.194	30.954	100.24
545.9	118.96	30.974	87.986
546.1	110.429	42.02	68.409
546.3	109.977	36.17	73.807
546.5	114.124	35.764	78.36
546.7	113.884	34.894	78.99
546.9	115.939	34.335	81.604
547.1	133.341	34.701	98.64
547.3	117.567	32.893	84.674
547.5	125.059	33.945	91.114
547.7	125.992	29.596	96.396
547.9	116.855	33.209	83.646
548.1	116.626	29.518	87.108
548.3	115.623	39.173	76.45
548.5	111.387	35.362	76.025
548.7	122.711	31.494	91.217
548.9	124.745	36.196	88.549
549.1	112.457	32.571	79.886
549.3	152.93	45.7	107.23
549.5	120.151	29.935	90.216
549.7	124.773	38.154	86.619
549.9	112.018	33.744	78.274
550.1	126.257	43.025	83.232
550.3	118.968	31.524	87.444
550.5	119.304	31.588	87.716
550.7	137.496	36.376	101.12
550.9	113.2	31.586	81.614
551.1	120.651	31.916	88.735
551.3	117.371	28.731	88.64
551.5	113.585	28.713	84.872
551.7	117.015	39.992	77.023
551.9	117.56	31.162	86.398
552.1	109.925	38.107	71.818
552.3	115.571	34.403	81.168
552.5	127.52	27.52	100
552.7	111.878	35.125	76.753
552.9	113.574	32.366	81.208
553.1	105.302	27.941	77.361
553.3	115.354	39.704	75.65
553.5	123.125	32.526	90.599
553.7	127.937	34.44	93.497
553.9	101.891	33.58	68.311
554.1	105.321	39.156	66.165
554.3	122.657	33.936	88.721
554.5	117.455	23.534	93.921
554.7	127.857	34.593	93.264
554.9	119.419	30.527	88.892
555.1	130.627	26.867	103.76
555.3	128.31	31.218	97.092
555.5	119.798	33.319	86.479
555.7	107.801	29.278	78.523
555.9	112.25	27.61	84.64
556.1	109.806	28.478	81.328
556.3	116.114	32.631	83.483
556.5	120.173	30.889	89.284
556.7	102.931	23.974	78.957
556.9	104.426	26.254	78.172
557.1	115.169	28.742	86.427
557.3	110.55	27.696	82.854
557.5	109.439	34.923	74.516
557.7	112.162	31.296	80.866
557.9	102.997	27.355	75.642
558.1	105.806	29.93	75.876
558.3	106.848	29.562	77.286
558.5	101.548	27.981	73.567
558.7	112.961	30.914	82.047
558.9	105.392	25.768	79.624
559.1	112.231	19.208	93.023
559.3	118.289	31.697	86.592
559.5	118.491	31.589	86.902
559.7	101.079	32.623	68.456
559.9	106.419	35.701	70.718
560.1	102.044	36.694	65.35
560.3	111.788	29.547	82.241
560.5	123.268	27.661	95.607
560.7	116.041	36.596	79.445
560.9	109.68	35.897	73.783
561.1	99.799	27.58	72.219
561.3	109.023	32.893	76.13
561.5	101.29	25.98	75.31
561.7	82.399	22.133	60.266
561.9	102.573	31.441	71.132
562.1	114.278	32.997	81.281
562.3	121.596	34.257	87.339
562.5	117.356	30.103	87.253
562.7	112.027	32.003	80.024
562.9	101.275	21.139	80.136
563.1	122.604	32.823	89.781
563.3	114.855	36.06	78.795
563.5	95.568	27.68	67.888
563.7	92.055	26.512	65.543
563.9	110.006	31.571	78.435
564.1	111.126	28.549	82.577
564.3	112.81	34.024	78.786
564.5	113.219	33.5	79.719
564.7	96.035	29.102	66.933
564.9	97.273	25.437	71.836
565.1	99.336	25.166	74.17
565.3	92.888	29.953	62.935
565.5	110.41	28.914	81.496
565.7	123.81	42.061	81.749
565.9	123.124	34.595	88.529
566.1	128.358	37.804	90.554
566.3	107.704	31.626	76.078
566.5	117.33	31.508	85.822
566.7	102.147	24.676	77.471
566.9	96.953	23.763	73.19
567.1	108.651	27.382	81.269
567.3	95.807	21.263	74.544
567.5	116.924	31.812	85.112
567.7	106.261	32.198	74.063
567.9	103.509	29.865	73.644
568.1	83.826	21.044	62.782
568.3	115.862	33.984	81.878
568.5	104.919	31.204	73.715
568.7	102.737	21.192	81.545
568.9	94.693	31.039	63.654
569.1	100.509	24.432	76.077
569.3	102.954	29	73.954
569.5	98.833	30.509	68.324
569.7	99.038	28.745	70.293
569.9	98.557	32.538	66.019
570.1	108.881	32.13	76.751
570.3	106.02	32.523	73.497
570.5	112.627	32.731	79.896
570.7	114.564	28.574	85.99
570.9	94.838	25.179	69.659
571.1	95.097	21.78	73.317
571.3	100.249	23.454	76.795
571.5	111.862	32.013	79.849
571.7	108.087	33.081	75.006
571.9	96.774	26.294	70.48
572.1	104.982	26.889	78.093
572.3	111.761	29.974	81.787
572.5	102.568	35.897	66.671
572.7	120.409	32.546	87.863
572.9	119.19	27.262	91.928
573.1	91.845	21.94	69.905
573.3	91.173	24.317	66.856
573.5	104.38	28.507	75.873
573.7	89.689	22.59	67.099
573.9	95.234	22.755	72.479
574.1	93.126	23.613	69.513
574.3	90.815	28.695	62.12
574.5	94.502	28.425	66.077
574.7	106.693	31.212	75.481
574.9	102.804	28.645	74.159
575.1	96.144	30.638	65.506
575.3	75.688	22.467	53.221
575.5	102.655	32.029	70.626
575.7	105.438	22.708	82.73
575.9	87.294	25.244	62.05
576.1	102.582	27.987	74.595
576.3	97.309	26.487	70.822
576.5	103.737	26.889	76.848
576.7	102.369	27.644	74.725
576.9	90.682	21.883	68.799
577.1	91.292	21.23	70.062
577.3	108.295	27.154	81.141
577.5	103.398	26.538	76.86
577.7	96.283	28.842	67.441
577.9	111.876	31.022	80.854
578.1	108.622	30.465	78.157
578.3	85.622	28.813	56.809
578.5	104.672	28.349	76.323
578.7	88.923	24.215	64.708
578.9	93.396	24.882	68.514
579.1	106.106	24.802	81.304
579.3	109.076	27.836	81.24
579.5	105.135	23.492	81.643
579.7	107.309	29.305	78.004
579.9	79.456	26.059	53.397
580.1	86.448	20.79	65.658
580.3	95.758	28.817	66.941
580.5	100.126	26.008	74.118
580.7	105.749	36.372	69.377
580.9	97.234	32.674	64.56
581.1	94.146	23.857	70.289
581.3	84.284	30.509	53.775
581.5	89.613	31.327	58.286
581.7	93.931	26.607	67.324
581.9	105.739	31.441	74.298
582.1	92.983	23.549	69.434
582.3	84.858	16.662	68.196
582.5	100.368	27.941	72.427
582.7	88.811	28.844	59.967
582.9	93.475	23.711	69.764
583.1	97.044	28.608	68.436
583.3	99.254	34.392	64.862
583.5	104.776	31.348	73.428
583.7	96.739	23.852	72.887
583.9	100.757	29.87	70.887
584.1	91.39	32.695	58.695
584.3	104.237	29.187	75.05
584.5	105.372	29.623	75.749
584.7	98.577	33.205	65.372
584.9	90.3	24.83	65.47
585.1	99.282	28.667	70.615
585.3	105.83	25.369	80.461
585.5	103.457	27.775	75.682
585.7	100.156	27.226	72.93
585.9	98.571	26.589	71.982
586.1	101.99	29.29	72.7
586.3	108.73	29.304	79.426
586.5	114.251	32.037	82.214
586.7	108.113	38.848	69.265
586.9	85.682	21.081	64.601
587.1	95.532	27.266	68.266
587.3	109.137	29.056	80.081
587.5	80.708	20.235	60.473
587.7	83.009	23.41	59.599
587.9	89.21	21.005	68.205
588.1	93.137	27.634	65.503
588.3	94.605	28.268	66.337
588.5	99.445	28.335	71.11
588.7	93.011	31.236	61.775
588.9	66.997	20.138	46.859
589.1	82.06	19.498	62.562
589.3	76.493	28.438	48.055
589.5	101.891	27.973	73.918
589.7	84.024	25.502	58.522
589.9	82.285	23.319	58.966
590.1	101.655	21.526	80.129
590.3	104.298	21.974	82.324
590.5	103.703	19.913	83.79
590.7	105.791	29.125	76.666
590.9	92.049	20.877	71.172
591.1	95.574	26.25	69.324
591.3	98.95	27.7	71.25
591.5	96.173	30.382	65.791
591.7	91.264	28.459	62.805
591.9	91.639	25.03	66.609
592.1	95.506	18.358	77.148
592.3	98.44	25.571	72.869
592.5	85.144	30.351	54.793
592.7	80.676	25.149	55.527
592.9	103.678	19.685	83.993
593.1	96.937	30.065	66.872
593.3	87.226	22.201	65.025
593.5	96.434	29.394	67.04
593.7	94.724	27.896	66.828
593.9	87.141	25.879	61.262
594.1	77.017	24.331	52.686
594.3	84.625	23.478	61.147
594.5	93.59	23.622	69.968
594.7	97.359	19.504	77.855
594.9	85.258	21.791	63.467
595.1	85.787	26.603	59.184
595.3	90.05	24.275	65.775
595.5	108.032	33.991	74.041
595.7	86.916	27.881	59.035
595.9	84.167	22.505	61.662
596.1	77.938	26.036	51.902
596.3	100.978	33.081	67.897
596.5	103.968	39.236	64.732
596.7	85.095	28.566	56.529
596.9	90.468	22.149	68.319
597.1	95.122	21.583	73.539
597.3	88.845	23.255	65.59
597.5	83.941	25.077	58.864
597.7	98.897	27.908	70.989
597.9	91.457	30.696	60.761
598.1	93.003	25.92	67.083
598.3	87.851	27.039	60.812
598.5	89.917	26.086	63.831
598.7	92.378	29.153	63.225
598.9	102.82	30.926	71.894
599.1	84.748	24.676	60.072
599.3	63.271	14.601	48.67
599.5	82.231	21.945	60.286
599.7	87.321	20.092	67.229
599.9	83.343	24.886	58.457
600.1	87.191	18.652	68.539
600.3	85.971	18.035	67.936
600.5	94.046	22.707	71.339
600.7	92.993	23.422	69.571
600.9	86.85	21.83	65.02
601.1	85.286	24.068	61.218
601.3	81.248	27.798	53.45
601.5	79.577	18.2	61.377
601.7	70.634	17.516	53.118
601.9	87.802	20.51	67.292
602.1	84.534	17.112	67.422
602.3	71.61	21.042	50.568
602.5	97.102	33.085	64.017
602.7	94.746	29.841	64.905
602.9	78.455	23.094	55.361
603.1	94.326	25.857	68.469
603.3	85.441	26.402	59.039
603.5	82.379	22.489	59.89
603.7	77.586	17.533	60.053
603.9	89.781	19.059	70.722
604.1	82.492	19.852	62.64
604.3	77.608	18.981	58.627
604.5	78.485	24.814	53.671
604.7	78.723	17.797	60.926
604.9	79.606	22.568	57.038
605.1	79.321	25.541	53.78
605.3	88.171	18.068	70.103
605.5	87.45	23.368	64.082
605.7	89.685	22.534	67.151
605.9	82.588	18.433	64.155
606.1	77.855	20.471	57.384
606.3	88.96	20.103	68.857
606.5	81.344	20.351	60.993
606.7	84.303	26.87	57.433
606.9	64.886	16.676	48.21
607.1	91.725	20.617	71.108
607.3	76.932	21.349	55.583
607.5	76.077	19.461	56.616
607.7	95.243	22.783	72.46
607.9	79.591	21.318	58.273
608.1	85.93	20.297	65.633
608.3	95.531	25.563	69.968
608.5	92.544	24.635	67.909
608.7	98.944	27.696	71.248
608.9	88.06	16.783	71.277
609.1	84.392	19.494	64.898
609.3	77.026	22.744	54.282
609.5	68.342	15.718	52.624
609.7	79.95	22.802	57.148
609.9	83.611	16.752	66.859
610.1	81.165	22.905	58.26
610.3	82.774	20.652	62.122
610.5	82.379	19.873	62.506
610.7	85.938	22.922	63.016
610.9	91.738	22.901	68.837
611.1	88.524	22.712	65.812
611.3	76.921	22.652	54.269
611.5	69.086	19.985	49.101
611.7	83.177	22.117	61.06
611.9	100.768	21.826	78.942
612.1	86.502	21.423	65.079
612.3	84.586	17.878	66.708
612.5	83.559	21.455	62.104
612.7	88.828	19.371	69.457
612.9	85.335	18.059	67.276
613.1	80.167	15.97	64.197
613.3	83.565	20.998	62.567
613.5	75.96	20.008	55.952
613.7	92.621	21.831	70.79
613.9	74.016	21.307	52.709
614.1	64.581	14.02	50.561
614.3	87.487	27.669	59.818
614.5	80.611	16.945	63.666
614.7	80.551	17.143	63.408
614.9	91.834	30.231	61.603
615.1	74.489	15.896	58.593
615.3	76.641	18.771	57.87
615.5	82.848	19.842	63.006
615.7	81.31	22.43	58.88
615.9	84.43	22.093	62.337
616.1	84.937	27.013	57.924
616.3	69.498	26.403	43.095
616.5	73.608	20.469	53.139
616.7	84.639	17.629	67.01
616.9	80.012	20.54	59.472
617.1	60.618	11.957	48.661
617.3	71.315	14.748	56.567
617.5	72.479	18.662	53.817
617.7	65.303	20.237	45.066
617.9	79.115	19.533	59.582
618.1	78.221	17.413	60.808
618.3	90.419	21.171	69.248
618.5	75.97	17.328	58.642
618.7	83.572	25.817	57.755
618.9	91.993	20.714	71.279
619.1	79.341	17.731	61.61
619.3	65.569	14.532	51.037
619.5	77.554	16.568	60.986
619.7	87.287	22.92	64.367
619.9	73.639	22.156	51.483
620.1	92.789	21.805	70.984
620.3	78.506	16.601	61.905
620.5	77.786	27.491	50.295
620.7	79.344	25.973	53.371
620.9	73.699	20.931	52.768
621.1	71.153	18.537	52.616
621.3	74.534	21.015	53.519
621.5	70.143	26.275	43.868
621.7	70.729	16.815	53.914
621.9	72.291	18.359	53.932
622.1	83.314	24.988	58.326
622.3	88.502	29.452	59.05
622.5	84.869	22.478	62.391
622.7	78.997	18.834	60.163
622.9	81.033	15.777	65.256
623.1	75.497	16.768	58.729
623.3	80.101	23.088	57.013
623.5	75.421	18.652	56.769
623.7	81.833	24.561	57.272
623.9	71.676	15.869	55.807
624.1	83.991	23.582	60.409
624.3	73.874	18.117	55.757
624.5	63.647	19.84	43.807
624.7	66.486	19.062	47.424
624.9	77.536	18.555	58.981
625.1	81.705	20.945	60.76
625.3	79.113	24.471	54.642
625.5	82.512	24.956	57.556
625.7	91.678	26.893	64.785
625.9	96.466	19.761	76.705
626.1	74.066	21.967	52.099
626.3	63.153	20.527	42.626
626.5	67.41	14.046	53.364
626.7	70.29	20.877	49.413
626.9	78.414	18.896	59.518
627.1	75.419	18.553	56.866
627.3	73.113	23.922	49.191
627.5	88.103	27.374	60.729
627.7	76.222	24.311	51.911
627.9	84.164	22.875	61.289
628.1	66.9	21.478	45.422
628.3	76.332	16.984	59.348
628.5	66.805	24.968	41.837
628.7	64.745	18.295	46.45
628.9	70.607	18.667	51.94
629.1	68.453	17.161	51.292
629.3	88.761	26.119	62.642
629.5	94.295	27.597	66.698
629.7	88.057	21.159	66.898
629.9	79.638	18.173	61.465
630.1	76.791	13.288	63.503
630.3	73.443	15.481	57.962
630.5	64.181	18.382	45.799
630.7	82.687	26.649	56.038
630.9	80.282	20.651	59.631
631.1	57.919	15.532	42.387
631.3	71.522	20.164	51.358
631.5	71.692	22.286	49.406
631.7	76.308	21.319	54.989
631.9	79.432	28.576	50.856
632.1	83.167	27.647	55.52
632.3	66.815	18.431	48.384
632.5	71.682	21.392	50.29
632.7	63.353	17.594	45.759
632.9	71.289	16.874	54.415
633.1	67.926	16.763	51.163
633.3	66.445	18.355	48.09
633.5	79.698	21.5	58.198
633.7	66.829	14.024	52.805
633.9	72.422	21.259	51.163
634.1	96.119	29.164	66.955
634.3	76.168	15.966	60.202
634.5	82.475	21.453	61.022
634.7	72.794	21.271	51.523
634.9	77.109	27.49	49.619
635.1	66.528	17.147	49.381
635.3	69.499	15.528	53.971
635.5	72.804	20.582	52.222
635.7	62.367	18.62	43.747
635.9	69.685	16.326	53.359
636.1	75.317	21.995	53.322
636.3	59.373	16.369	43.004
636.5	68.804	18.031	50.773
636.7	69.242	13.386	55.856
636.9	74.083	20.585	53.498
637.1	67.965	17.602	50.363
637.3	73.807	16.405	57.402
637.5	78.108	20.141	57.967
637.7	70.144	14.433	55.711
637.9	74.126	21.107	53.019
638.1	73.578	14.231	59.347
638.3	81.495	22.247	59.248
638.5	61.923	16.735	45.188
638.7	67.126	21.298	45.828
638.9	74.207	24.041	50.166
639.1	65.607	14.595	51.012
639.3	68.31	12.848	55.462
639.5	60.573	14.95	45.623
639.7	75.155	23.769	51.386
639.9	59.931	19.864	40.067
640.1	68.91	16.879	52.031
640.3	66.705	16.913	49.792
640.5	70.022	18.444	51.578
640.7	68.557	19.523	49.034
640.9	70.974	23.732	47.242
641.1	66.703	23.174	43.529
641.3	66.67	22.07	44.6
641.5	59.172	16.329	42.843
641.7	68.275	16.519	51.756
641.9	73.844	21.725	52.119
642.1	63.81	17.669	46.141
642.3	74.05	20.299	53.751
642.5	78.254	23.024	55.23
642.7	79.5	27.328	52.172
642.9	86.155	23.053	63.102
643.1	65.207	17.696	47.511
643.3	66.117	22.125	43.992
643.5	62.524	17.75	44.774
643.7	69.131	22.43	46.701
643.9	65.527	17.701	47.826
644.1	76.015	20.576	55.439
644.3	70.955	20.312	50.643
644.5	60.032	15.472	44.56
644.7	74.905	15.085	59.82
644.9	74.271	17.442	56.829
645.1	64.446	15.961	48.485
645.3	86.399	16.082	70.317
645.5	63.616	19.873	43.743
645.7	80.551	18.813	61.738
645.9	72.223	17.311	54.912
646.1	67.409	16.818	50.591
646.3	63.88	14.137	49.743
646.5	68.227	18.743	49.484
646.7	78.831	29.534	49.297
646.9	60.59	18.875	41.715
647.1	64.892	18.6	46.292
647.3	69.821	16.502	53.319
647.5	64.809	23.549	41.26
647.7	64.589	18.406	46.183
647.9	63.369	19.551	43.818
648.1	75.208	16.847	58.361
648.3	65.344	19.455	45.889
648.5	68.763	16.156	52.607
648.7	66.031	17.19	48.841
648.9	65.22	18.077	47.143
649.1	64.25	20.689	43.561
649.3	65.477	17.14	48.337
649.5	69.216	19.699	49.517
649.7	68.452	21.255	47.197
649.9	76.903	16.305	60.598
650.1	73.686	25.052	48.634
650.3	79.304	22.152	57.152
650.5	72.884	21.254	51.63
650.7	61.677	19.205	42.472
650.9	70.392	21.337	49.055
651.1	59.381	18.767	40.614
651.3	70.756	25.221	45.535
651.5	64.327	18.665	45.662
651.7	58.472	14.234	44.238
651.9	65.102	12.683	52.419
652.1	62.733	21.033	41.7
652.3	62.913	16.413	46.5
652.5	54.865	15.753	39.112
652.7	55.478	17.968	37.51
652.9	62.77	16.392	46.378
653.1	58.373	7.209	51.164
653.3	60.681	14.889	45.792
653.5	63.285	15.177	48.108
653.7	67.603	18.641	48.962
653.9	52.351	10.029	42.322
654.1	54.999	11.635	43.364
654.3	60.825	14.401	46.424
654.5	62.868	20.423	42.445
654.7	67.12	27.341	39.779
654.9	76.137	23.495	52.642
655.1	71.753	20.78	50.973
655.3	65.108	15.826	49.282
655.5	65.423	13.869	51.554
655.7	50.457	12.261	38.196
655.9	60.08	11.072	49.008
656.1	58.699	16.919	41.78
656.3	64.097	15.609	48.488
656.5	65.206	18.934	46.272
656.7	62.169	13.792	48.377
656.9	65.82	18.875	46.945
657.1	56.505	13.199	43.306
657.3	68.345	14.924	53.421
657.5	59.824	13.928	45.896
657.7	66.334	16.381	49.953
657.9	67.731	19.581	48.15
658.1	65.543	16.068	49.475
658.3	70.757	16.678	54.079
658.5	57.896	17.05	40.846
658.7	62.794	16.441	46.353
658.9	59.848	21.851	37.997
659.1	67.455	13.262	54.193
659.3	74.196	18.848	55.348
659.5	62.037	17.52	44.517
659.7	72.465	16.282	56.183
659.9	73.498	18.01	55.488
660.1	67.033	20.885	46.148
660.3	63.629	19.757	43.872
660.5	67.959	19.679	48.28
660.7	58.614	15.316	43.298
660.9	49.891	15.039	34.852
661.1	41.79	11.348	30.442
661.3	57.45	11.994	45.456
661.5	70.44	20.245	50.195
661.7	72.141	25.311	46.83
661.9	50.846	13.628	37.218
662.1	61.241	14.312	46.929
662.3	72.755	17.232	55.523
662.5	61.64	14.494	47.146
662.7	71.112	27.178	43.934
662.9	62.383	13.302	49.081
663.1	64.05	11.91	52.14
663.3	59.916	21.62	38.296
663.5	49.155	17.361	31.794
663.7	68.929	19.926	49.003
663.9	69.378	19.421	49.957
664.1	61.606	22.766	38.84
664.3	76.73	22.701	54.029
664.5	71.644	22.858	48.786
664.7	66.558	23.341	43.217
664.9	55.012	18.48	36.532
665.1	57.632	12.828	44.804
665.3	62.653	12.132	50.521
665.5	72.17	20.302	51.868
665.7	76.154	24.723	51.431
665.9	66.449	25.81	40.639
666.1	65.055	11.437	53.618
666.3	57.561	13.613	43.948
666.5	60.737	15.298	45.439
666.7	66.001	19.122	46.879
666.9	69.626	12.079	57.547
667.1	66.927	12.563	54.364
667.3	57.706	13.848	43.858
667.5	66.709	19.047	47.662
667.7	67.528	13.783	53.745
667.9	77.227	20.39	56.837
668.1	63.075	17.435	45.64
668.3	60.703	14.519	46.184
668.5	70.881	23.773	47.108
668.7	67.243	18.742	48.501
668.9	66.198	17.451	48.747
669.1	65.849	18.302	47.547
669.3	60.128	17.574	42.554
669.5	66.353	21.824	44.529
669.7	66.628	16.799	49.829
669.9	63.103	18.266	44.837
670.1	51.4412	9.7912	41.65
670.3	61.111	10.53	50.581
670.5	56.357	15.373	40.984
670.7	72.614	22.59	50.024
670.9	53.651	17.362	36.289
671.1	68.852	14.17	54.682
671.3	64.952	15.019	49.933
671.5	72.382	17.579	54.803
671.7	52.648	13.403	39.245
671.9	59.216	15.017	44.199
672.1	52.308	17.952	34.356
672.3	69.078	18.682	50.396
672.5	55.416	10.855	44.561
672.7	56.3443	8.8273	47.517
672.9	70.656	16.524	54.132
673.1	67.441	17.061	50.38
673.3	61.176	15.599	45.577
673.5	67.475	25.948	41.527
673.7	58.346	16.784	41.562
673.9	55.667	21.316	34.351
674.1	55.33	12.192	43.138
674.3	63.047	18.543	44.504
674.5	56.181	14.123	42.058
674.7	65.059	14.463	50.596
674.9	58.111	13.179	44.932
675.1	54.578	13.011	41.567
675.3	57.898	14.011	43.887
675.5	69.581	14.77	54.811
675.7	57.23	13.436	43.794
675.9	51.804	15.744	36.06
676.1	62.28	17.544	44.736
676.3	56.03	20.351	35.679
676.5	62.073	12.263	49.81
676.7	68.421	18.26	50.161
676.9	72.191	19.484	52.707
677.1	53.485	13.329	40.156
677.3	61.559	19.813	41.746
677.5	47.991	15.393	32.598
677.7	61.242	15.379	45.863
677.9	63.635	20.784	42.851
678.1	72.947	19.858	53.089
678.3	69.826	16.966	52.86
678.5	66.328	18.428	47.9
678.7	52.567	15.784	36.783
678.9	61.817	15.164	46.653
679.1	51.381	11.566	39.815
679.3	60.489	16.375	44.114
679.5	64.353	21.645	42.708
679.7	49.137	18.254	30.883
679.9	62.38	11.734	50.646
680.1	46.739	12.159	34.58
680.3	51.517	14.137	37.38
680.5	49.434	12.998	36.436
680.7	78.817	20.524	58.293
680.9	44.161	10.171	33.99
681.1	64.133	16.954	47.179
681.3	64.554	15.37	49.184
681.5	45.291	13.455	31.836
681.7	47.076	12.302	34.774
681.9	51.172	16.116	35.056
682.1	60.758	19.116	41.642
682.3	55.505	14.67	40.835
682.5	57.725	19.448	38.277
682.7	60.099	17.44	42.659
682.9	52.621	13.27	39.351
683.1	55.421	15.436	39.985
683.3	49.093	14.276	34.817
683.5	65.359	18.39	46.969
683.7	60.686	14.758	45.928
683.9	56.537	12.867	43.67
684.1	52.368	19.524	32.844
684.3	55.937	13.91	42.027
684.5	56.814	18.173	38.641
684.7	56.894	13.807	43.087
684.9	65.516	22.884	42.632
685.1	54.638	14.471	40.167
685.3	58.85	22.54	36.31
685.5	56.008	12.343	43.665
685.7	66.51	20.394	46.116
685.9	53.9966	9.2466	44.75
686.1	52.5165	6.7595	45.757
686.3	51.208	20.535	30.673
686.5	52.269	20.39	31.879
686.7	50.3	18.566	31.734
686.9	48.32	10.691	37.629
687.1	48.189	15.247	32.942
687.3	54.363	14.735	39.628
687.5	49.299	15.61	33.689
687.7	51.234	15.531	35.703
687.9	57.569	16.049	41.52
688.1	59.474	11.595	47.879
688.3	56.232	12.918	43.314
688.5	67.176	19.261	47.915
688.7	60.613	16.654	43.959
688.9	48.503	12.004	36.499
689.1	54.839	14.557	40.282
689.3	66.941	23.819	43.122
689.5	58.538	26.87	31.668
689.7	45.8707	8.9827	36.888
689.9	60.973	13.979	46.994
690.1	63.344	14.978	48.366
690.3	61.237	13.25	47.987
690.5	56.83	18.844	37.986
690.7	57.627	20.14	37.487
690.9	54.688	13.394	41.294
691.1	56.402	16.539	39.863
691.3	55.139	18.902	36.237
691.5	56.062	13.721	42.341
691.7	61.048	14.427	46.621
691.9	46.096	12.749	33.347
692.1	61.938	12.295	49.643
692.3	56.528	17.384	39.144
692.5	65.249	14.006	51.243
692.7	50.01	16.019	33.991
692.9	48.7722	9.8582	38.914
693.1	54.617	15.041	39.576
693.3	52.22	13.813	38.407
693.5	52.878	16.458	36.42
693.7	43.043	13.727	29.316
693.9	46.222	11.412	34.81
694.1	50.577	14.354	36.223
694.3	55.213	18.284	36.929
694.5	53.321	20.955	32.366
694.7	46.773	16.412	30.361
694.9	55.081	16.173	38.908
695.1	55.163	14.417	40.746
695.3	56.3025	9.7855	46.517
695.5	53.46	15.558	37.902
695.7	50.864	16.496	34.368
695.9	48.944	15.671	33.273
696.1	41.812	15.388	26.424
696.3	60.955	19.409	41.546
696.5	47.083	13.672	33.411
696.7	46.739	16.367	30.372
696.9	45.938	13.821	32.117
697.1	42.385	12.003	30.382
697.3	51.755	11.697	40.058
697.5	51.863	12.696	39.167
697.7	53.094	16.002	37.092
697.9	47.328	17.129	30.199
698.1	50.6609	9.7129	40.948
698.3	53.648	13.217	40.431
698.5	48.593	13.341	35.252
698.7	53.516	15.572	37.944
698.9	51.825	15.212	36.613
699.1	57.213	10.683	46.53
699.3	68.054	20.231	47.823
699.5	51.936	12.767	39.169
699.7	54.519	15.393	39.126
699.9	47.8604	9.5364	38.324
700.1	57.4722	9.2892	48.183
700.3	48.358	10.577	37.781
700.5	44.022	13.044	30.978
700.7	63.925	14.809	49.116
700.9	53.692	14.277	39.415
701.1	43.457	11.356	32.101
701.3	48.108	10.484	37.624
701.5	45.939	12.188	33.751
701.7	51.704	13.418	38.286
701.9	38.7448	6.5878	32.157
702.1	44.724	12.887	31.837
702.3	41.579	11.717	29.862
702.5	56.332	14.94	41.392
702.7	59.453	12.55	46.903
702.9	56.855	14.341	42.514
703.1	55.938	13.487	42.451
703.3	57.433	20.727	36.706
703.5	49.456	16.059	33.397
703.7	53.917	16.954	36.963
703.9	53.64	15.701	37.939
704.1	52.595	13.366	39.229
704.3	49.24	15.661	33.579
704.5	52.898	13.189	39.709
704.7	36.2292	9.1552	27.074
704.9	51.68	12.244	39.436
705.1	61.616	12.271	49.345
705.3	62.371	12.501	49.87
705.5	54.547	14.542	40.005
705.7	45.773	11.218	34.555
705.9	46.654	15.82	30.834
706.1	44.379	16.118	28.261
706.3	56.634	17.778	38.856
706.5	59.503	16.027	43.476
706.7	52.151	17.444	34.707
706.9	50.319	17.498	32.821
707.1	51.646	11.59	40.056
707.3	46.81	12.346	34.464
707.5	43.837	11.845	31.992
707.7	63.677	15.595	48.082
707.9	54.564	14.932	39.632
708.1	65.339	18.483	46.856
708.3	51.04	20.226	30.814
708.5	47.911	15.093	32.818
708.7	53.0475	9.5605	43.487
708.9	43.89	10.957	32.933
709.1	43.827	11.599	32.228
709.3	37.7697	6.9687	30.801
709.5	53.741	15.802	37.939
709.7	52.744	16.501	36.243
709.9	43.946	15.835	28.111
710.1	65.373	20.06	45.313
710.3	61.353	13.963	47.39
710.5	52.877	13.125	39.752
710.7	41.43	12.858	28.572
710.9	49.7357	8.4157	41.32
711.1	52.806	11.182	41.624
711.3	55.263	14.706	40.557
711.5	57.614	11.098	46.516
711.7	50.796	9.664	41.132
711.9	49.454	14.343	35.111
712.1	51.112	10.76	40.352
712.3	55.106	13.319	41.787
712.5	47.111	8.073	39.038
712.7	52.579	14.78	37.799
712.9	54.067	14.992	39.075
713.1	56.109	15.063	41.046
713.3	47.2963	9.2563	38.04
713.5	53.251	13.52	39.731
713.7	55.751	16.277	39.474
713.9	51.66	14.448	37.212
714.1	43.935	10.629	33.306
714.3	48.655	10.75	37.905
714.5	59.008	10.523	48.485
714.7	57.528	17.07	40.458
714.9	53.078	17.896	35.182
715.1	42.723	15.537	27.186
715.3	48.72	16.613	32.107
715.5	62.355	16.232	46.123
715.7	56.418	14.301	42.117
715.9	52.11	11.504	40.606
716.1	45.277	8.862	36.415
716.3	40.266	12.83	27.436
716.5	41.518	13.033	28.485
716.7	56.4494	9.6084	46.841
716.9	41.7397	5.4577	36.282
717.1	41.0107	6.5977	34.413
717.3	37.644	11.187	26.457
717.5	59.932	19.298	40.634
717.7	44.133	15.27	28.863
717.9	42.5684	7.7194	34.849
718.1	49.4294	9.8784	39.551
718.3	46.7323	8.2463	38.486
718.5	55.0089	9.7479	45.261
718.7	49.547	11.901	37.646
718.9	46.2745	7.1785	39.096
719.1	46.185	12.902	33.283
719.3	39.98	14.469	25.511
719.5	38.031	9.967	28.064
719.7	45.892	14.586	31.306
719.9	48.7006	9.5826	39.118
720.1	64.26	18.142	46.118
720.3	45.773	12.12	33.653
720.5	41.372	10.342	31.03
720.7	38.348	11.231	27.117
720.9	46.274	16.625	29.649
721.1	51.966	18.099	33.867
721.3	48.3	15.941	32.359
721.5	52.095	17.101	34.994
721.7	46.231	14.065	32.166
721.9	51.327	13.81	37.517
722.1	48.984	11.142	37.842
722.3	40.65	14.832	25.818
722.5	34.818	13.293	21.525
722.7	49.275	11.895	37.38
722.9	52.72	12.554	40.166
723.1	36.8974	6.6244	30.273
723.3	46.99	11.844	35.146
723.5	43.214	13.726	29.488
723.7	55.074	10.359	44.715
723.9	50.196	12.486	37.71
724.1	45.638	15.229	30.409
724.3	38.6776	6.3186	32.359
724.5	46.0942	8.9962	37.098
724.7	54.79	14.699	40.091
724.9	48.5109	9.9549	38.556
725.1	44.215	11.596	32.619
725.3	46.358	10.258	36.1
725.5	44.034	11.323	32.711
725.7	40.485	11.151	29.334
725.9	38.8879	7.8899	30.998
726.1	37.2527	7.4457	29.807
726.3	54.374	19.375	34.999
726.5	53.315	13.002	40.313
726.7	44.5996	9.7676	34.832
726.9	48.572	16.914	31.658
727.1	49.471	12.047	37.424
727.3	42.239	10.211	32.028
727.5	49.584	14.496	35.088
727.7	51.517	10.94	40.577
727.9	48.1041	9.0401	39.064
728.1	49.268	11.098	38.17
728.3	33.968	13.431	20.537
728.5	40.451	13.433	27.018
728.7	39.802	9.331	30.471
728.9	41.7849	9.8019	31.983
729.1	50.661	12.019	38.642
729.3	36.3787	5.3527	31.026
729.5	49.358	13.63	35.728
729.7	53.78	19.732	34.048
729.9	51.607	14.683	36.924
730.1	37.842	12.1	25.742
730.3	51.017	12.409	38.608
730.5	48.3743	8.6433	39.731
730.7	46.85	14.206	32.644
730.9	42.307	10.892	31.415
731.1	48.632	11.095	37.537
731.3	48.771	10.029	38.742
731.5	52.425	16.967	35.458
731.7	39.177	10.124	29.053
731.9	48.0605	7.8725	40.188
732.1	46.223	16.024	30.199
732.3	38.957	10.507	28.45
732.5	50.293	13.258	37.035
732.7	50.494	13.455	37.039
732.9	43.689	17.066	26.623
733.1	58.845	10.43	48.415
733.3	52.124	15.254	36.87
733.5	43.86	15.044	28.816
733.7	48.026	12.389	35.637
733.9	53.366	15.117	38.249
734.1	45.959	13.496	32.463
734.3	32.807	13.077	19.73
734.5	43.413	13.379	30.034
734.7	43.699	13.33	30.369
734.9	38.511	10.672	27.839
735.1	38.6379	7.6919	30.946
735.3	36.5996	7.6806	28.919
735.5	38.561	11.108	27.453
735.7	45.775	14.117	31.658
735.9	42.308	11.79	30.518
736.1	46.934	11.679	35.255
736.3	39.4146	7.6636	31.751
736.5	50.477	13.529	36.948
736.7	45.321	11.596	33.725
736.9	41.51	11.246	30.264
737.1	38.8326	9.7686	29.064
737.3	44.1677	8.7127	35.455
737.5	43.5765	9.7915	33.785
737.7	47.016	14.819	32.197
737.9	45.056	14.003	31.053
738.1	41.083	10.177	30.906
738.3	31.5718	9.7818	21.79
738.5	39.368	12.842	26.526
738.7	35.7637	8.0177	27.746
738.9	39.9136	9.5886	30.325
739.1	47.628	12.316	35.312
739.3	42.9371	7.8331	35.104
739.5	39.059	10.87	28.189
739.7	47.353	17.162	30.191
739.9	60.436	11.575	48.861
740.1	41.666	12.843	28.823
740.3	45.488	13.528	31.96
740.5	46.597	15.305	31.292
740.7	47.636	12.443	35.193
740.9	43.835	19.178	24.657
741.1	39.987	12.368	27.619
741.3	49.823	12.295	37.528
741.5	44.251	14.671	29.58
741.7	51.647	16.109	35.538
741.9	43.419	11.574	31.845
742.1	44.413	15.489	28.924
742.3	46.063	9.934	36.129
742.5	52.283	12.867	39.416
742.7	41.844	12.308	29.536
742.9	44.554	13.769	30.785
743.1	46.505	15.562	30.943
743.3	38.555	11.808	26.747
743.5	37.6691	8.7631	28.906
743.7	39.509	10.017	29.492
743.9	38.905	9.318	29.587
744.1	47.984	18.072	29.912
744.3	37.8646	8.4856	29.379
744.5	43.4969	9.9249	33.572
744.7	41.546	12.005	29.541
744.9	41.005	12.935	28.07
745.1	46.539	10.874	35.665
745.3	45.7248	8.9268	36.798
745.5	39.841	10.254	29.587
745.7	39.338	13.271	26.067
745.9	43.296	11.647	31.649
746.1	48.599	14.586	34.013
746.3	42.9633	8.6793	34.284
746.5	35.0715	7.7755	27.296
746.7	41.001	13.43	27.571
746.9	44.551	14.738	29.813
747.1	41.126	10.82	30.306
747.3	43.095	12.973	30.122
747.5	38.628	11.996	26.632
747.7	37.4489	9.7129	27.736
747.9	36.3946	9.6156	26.779
748.1	32.7424	9.1844	23.558
748.3	34.455	10.327	24.128
748.5	37.1613	9.6853	27.476
748.7	52.677	15.178	37.499
748.9	32.634	13.15	19.484
749.1	32.166	9.252	22.914
749.3	41.99	11.402	30.588
749.5	34.8265	8.2045	26.622
749.7	47.891	14.31	33.581
749.9	46.11	18.481	27.629
750.1	46.098	10.861	35.237
750.3	37.7478	9.6458	28.102
750.5	42.744	12.004	30.74
750.7	37.514	10.169	27.345
750.9	40.6266	8.9606	31.666
751.1	37.269	11.881	25.388
751.3	41.262	15.381	25.881
751.5	54.209	18.574	35.635
751.7	39.318	9.334	29.984
751.9	39.1702	9.9452	29.225
752.1	47.476	14.377	33.099
752.3	44.769	15.751	29.018
752.5	36.0586	7.3616	28.697
752.7	42.9002	5.7092	37.191
752.9	46.772	13.508	33.264
753.1	41.602	11.063	30.539
753.3	32.5008	8.6248	23.876
753.5	44.028	12.562	31.466
753.7	26.8924	6.8014	20.091
753.9	41.719	14.179	27.54
754.1	37.769	12.598	25.171
754.3	41.3034	7.2544	34.049
754.5	40.326	11.38	28.946
754.7	39.903	11.782	28.121
754.9	41.305	18.121	23.184
755.1	35.213	11.07	24.143
755.3	33.0335	8.5255	24.508
755.5	29.8823	5.3703	24.512
755.7	40.5338	5.0468	35.487
755.9	34.4037	7.7017	26.702
756.1	40.4116	8.0636	32.348
756.3	46.839	14.183	32.656
756.5	40.047	12.732	27.315
756.7	47.732	10.82	36.912
756.9	44.693	12.138	32.555
757.1	41.0726	7.6806	33.392
757.3	42.278	17.281	24.997
757.5	37.138	9.938	27.2
757.7	39.397	13.275	26.122
757.9	40.5773	7.5423	33.035
758.1	37.291	11.071	26.22
758.3	40.222	8.912	31.31
758.5	42.417	16.83	25.587
758.7	38.537	12.834	25.703
758.9	33.203	7.705	25.498
759.1	36.481	12.418	24.063
759.3	31.847	10.495	21.352
759.5	51.63	14.275	37.355
759.7	42.758	14.838	27.92
759.9	42.8149	6.8349	35.98
760.1	48.1603	8.8573	39.303
760.3	51.011	11.959	39.052
760.5	36.766	11.778	24.988
760.7	42.562	11.57	30.992
760.9	36.4125	9.8235	26.589
761.1	37.049	10.772	26.277
761.3	39.0267	7.4957	31.531
761.5	35.1498	9.7588	25.391
761.7	38.574	11.843	26.731
761.9	34.585	10.609	23.976
762.1	35.0912	5.0382	30.053
762.3	41.457	10.719	30.738
762.5	35.763	13.323	22.44
762.7	30.1434	9.2764	20.867
762.9	41.231	10.511	30.72
763.1	43.5066	7.9446	35.562
763.3	43.4743	5.3013	38.173
763.5	42.6611	7.3041	35.357
763.7	44.5006	7.5896	36.911
763.9	46.409	11.372	35.037
764.1	35.0714	9.2554	25.816
764.3	38.6657	8.8927	29.773
764.5	33.5217	6.4937	27.028
764.7	26.656	8.086	18.57
764.9	35.4512	5.8452	29.606
765.1	36.6587	8.5177	28.141
765.3	46.1	12.398	33.702
765.5	39.0059	9.6799	29.326
765.7	40.3249	8.1529	32.172
765.9	33.0039	9.2269	23.777
766.1	43.8619	7.1549	36.707
766.3	39.67	14.474	25.196
766.5	55.823	12.818	43.005
766.7	47.645	12.108	35.537
766.9	50.31	12.803	37.507
767.1	33.539	10.145	23.394
767.3	34.35	11.321	23.029
767.5	30.0042	5.7542	24.25
767.7	26.9286	7.7726	19.156
767.9	45.2204	8.3984	36.822
768.1	43.578	15.044	28.534
768.3	32.107	12.844	19.263
768.5	40.047	13.401	26.646
768.7	36.2712	7.3352	28.936
768.9	31.254	7.489	23.765
769.1	34.726	7.284	27.442
769.3	43.887	15.612	28.275
769.5	43.601	15.144	28.457
769.7	29.798	12.053	17.745
769.9	33.8238	9.0398	24.784
770.1	29.6832	5.5872	24.096
770.3	39.18	10.396	28.784
770.5	51.533	11.502	40.031
770.7	34.1794	9.3794	24.8
770.9	37.3992	7.3822	30.017
771.1	34.609	11.714	22.895
771.3	36.679	10.115	26.564
771.5	40.92	7.777	33.143
771.7	44.985	11.013	33.972
771.9	47.08	13.639	33.441
772.1	39.604	10.003	29.601
772.3	33.323	11.968	21.355
772.5	43.278	16.064	27.214
772.7	46.85	15.083	31.767
772.9	42.741	12.798	29.943
773.1	43.292	10.718	32.574
773.3	46.649	13.621	33.028
773.5	30.2238	9.4468	20.777
773.7	36.8412	9.0872	27.754
773.9	33.8	11.689	22.111
774.1	37.3536	8.5526	28.801
774.3	31.8005	9.9655	21.835
774.5	45.814	12.569	33.245
774.7	32.807	10.847	21.96
774.9	35.4674	6.9534	28.514
775.1	36.15	11.249	24.901
775.3	35.09	14.107	20.983
775.5	35.848	11.939	23.909
775.7	35.6031	5.9371	29.666
775.9	47.5332	8.8802	38.653
776.1	38.8014	9.5024	29.299
776.3	42.3517	7.7597	34.592
776.5	34.637	10.274	24.363
776.7	41.005	10.911	30.094
776.9	47.656	14.067	33.589
777.1	39.006	12.189	26.817
777.3	41.8203	7.5373	34.283
777.5	39.682	12.804	26.878
777.7	41.2457	8.9817	32.264
777.9	28.0518	9.2008	18.851
778.1	35.308	9.582	25.726
778.3	41.2008	7.1378	34.063
778.5	38.614	10.128	28.486
778.7	38.813	12.936	25.877
778.9	44.6095	6.4245	38.185
779.1	33.1899	5.7369	27.453
779.3	39.179	10.531	28.648
779.5	42.963	14.472	28.491
779.7	41.613	11.608	30.005
779.9	36.6692	6.3712	30.298
780.1	29.035	11.969	17.066
780.3	30.5517	7.1987	23.353
780.5	40.371	11.916	28.455
780.7	30.781	11.438	19.343
780.9	29.951	10.233	19.718
781.1	41.0687	7.9757	33.093
781.3	29.488	10.118	19.37
781.5	39.638	11.795	27.843
781.7	26.7596	6.9716	19.788
781.9	38.1206	8.6106	29.51
782.1	32.6465	7.1505	25.496
782.3	28.2499	6.5919	21.658
782.5	40.526	19.731	20.795
782.7	28.34	12.786	15.554
782.9	31.91	13.792	18.118
783.1	29.3569	7.6859	21.671
783.3	35.9232	7.9572	27.966
783.5	42.0461	9.7461	32.3
783.7	38.7184	9.4334	29.285
783.9	41.6542	8.5672	33.087
784.1	31.6677	8.0017	23.666
784.3	39.364	13.866	25.498
784.5	27.23	13.214	14.016
784.7	30.5908	6.8158	23.775
784.9	36.294	10.409	25.885
785.1	39.3165	9.1645	30.152
785.3	45.7359	9.8699	35.866
785.5	43.279	12.413	30.866
785.7	36.2619	9.4579	26.804
785.9	33.523	12.128	21.395
786.1	32.2743	9.9433	22.331
786.3	27.2419	5.2569	21.985
786.5	28.8912	8.1882	20.703
786.7	40.4007	9.7827	30.618
786.9	37.798	11.868	25.93
787.1	44.4723	8.7753	35.697
787.3	28.7118	8.9078	19.804
787.5	29.0017	7.3217	21.68
787.7	44.62	19.227	25.393
787.9	36.249	13.222	23.027
788.1	38.2059	9.9099	28.296
788.3	38.55	11.952	26.598
788.5	33.9802	7.4942	26.486
788.7	36.714	10.468	26.246
788.9	41.169	13.443	27.726
789.1	26.6742	6.7482	19.926
789.3	37.82	11.524	26.296
789.5	34.3243	8.7733	25.551
789.7	39.6171	9.1471	30.47
789.9	43.2534	7.4724	35.781
790.1	41.9509	7.7169	34.234
790.3	43.92	12.912	31.008
790.5	35.004	14.27	20.734
790.7	27.756	6.735	21.021
790.9	41.047	10.929	30.118
791.1	27.899	8.827	19.072
791.3	40.733	13.597	27.136
791.5	34.273	11.713	22.56
791.7	37.0277	8.8477	28.18
791.9	31.902	6.205	25.697
792.1	37.293	10.175	27.118
792.3	28.3486	7.7206	20.628
792.5	29.6043	7.3353	22.269
792.7	35.3777	7.5337	27.844
792.9	36.578	10.426	26.152
793.1	33.6994	9.7014	23.998
793.3	39.796	12.561	27.235
793.5	30.584	8.329	22.255
793.7	31.7958	7.1268	24.669
793.9	29.339	5.006	24.333
794.1	32.5512	6.6442	25.907
794.3	33.577	10.995	22.582
794.5	34.4951	6.9641	27.531
794.7	39.705	10.977	28.728
794.9	27.8081	5.3081	22.5
795.1	31.1739	8.0409	23.133
795.3	34.7803	9.8303	24.95
795.5	33.626	13.304	20.322
795.7	41.3877	8.5787	32.809
795.9	47.904	10.298	37.606
796.1	31.1307	4.2057	26.925
796.3	36.601	10.454	26.147
796.5	32.6172	8.6322	23.985
796.7	40.995	15.396	25.599
796.9	34.533	14.521	20.012
797.1	36.8766	9.9876	26.889
797.3	29.5175	4.0725	25.445
797.5	34.0173	8.2573	25.76
797.7	42.422	14.786	27.636
797.9	35.7777	9.6317	26.146
798.1	37.6102	9.2012	28.409
798.3	38.8677	7.6527	31.215
798.5	40.5016	7.9826	32.519
798.7	35.1629	7.6289	27.534
798.9	31.165	10.066	21.099
799.1	33.4536	7.8576	25.596
799.3	34.5427	5.9007	28.642
799.5	27.657	6.653	21.004
799.7	31.4265	7.3265	24.1
799.9	23.9859	7.3029	16.683
800.1	28.5366	9.2066	19.33
800.3	32.7632	7.0332	25.73
800.5	32.4062	9.6312	22.775
800.7	36.927	14.285	22.642
800.9	23.06	8.721	14.339
801.1	35.4478	8.9158	26.532
801.3	35.574	14.671	20.903
801.5	30.3121	9.7311	20.581
801.7	32.114	9.886	22.228
801.9	27.1266	8.8916	18.235
802.1	26.0642	7.9392	18.125
802.3	31.6261	7.4231	24.203
802.5	35.762	13.586	22.176
802.7	27.4496	7.6996	19.75
802.9	27.7147	7.3577	20.357
803.1	27.3897	9.9997	17.39
803.3	36.905	13.11	23.795
803.5	27.9339	6.5059	21.428
803.7	29.1846	8.2306	20.954
803.9	28.666	8.266	20.4
804.1	30.148	10.278	19.87
804.3	28.78	9.742	19.038
804.5	24.8024	9.3844	15.418
804.7	37.605	10.472	27.133
804.9	36.0439	9.9039	26.14
805.1	33.782	11.394	22.388
805.3	28.1433	5.5393	22.604
805.5	34.5221	7.3371	27.185
805.7	30.1138	8.7788	21.335
805.9	24.3629	6.0239	18.339
806.1	33.2219	9.9609	23.261
806.3	33.402	14.987	18.415
806.5	31.241	10.514	20.727
806.7	35.8336	9.3306	26.503
806.9	46.4895	9.1365	37.353
807.1	39.48	10.404	29.076
807.3	38.0021	8.1051	29.897
807.5	26.4283	5.5443	20.884
807.7	37.2291	8.9711	28.258
807.9	36.8833	9.7983	27.085
808.1	34.893	11.378	23.515
808.3	30.2838	9.7808	20.503
808.5	39.084	10.932	28.152
808.7	34.303	10.493	23.81
808.9	30.4571	8.1691	22.288
809.1	32.3872	9.7122	22.675
809.3	37.5024	9.1764	28.326
809.5	30.9906	8.6506	22.34
809.7	31.523	13.858	17.665
809.9	26.8484	7.0754	19.773
810.1	32.1228	8.3248	23.798
810.3	24.837	11.209	13.628
810.5	39.195	10.182	29.013
810.7	31.3255	7.0675	24.258
810.9	26.9692	3.3632	23.606
811.1	24.9046	6.3986	18.506
811.3	32.3198	6.0078	26.312
811.5	28.5586	9.9166	18.642
811.7	29.091	11.535	17.556
811.9	34.9968	9.4678	25.529
812.1	32.393	12.188	20.205
812.3	28.6393	7.7403	20.899
812.5	23.539	6.392	17.147
812.7	33.1847	8.2497	24.935
812.9	39.2073	8.8113	30.396
813.1	36.6998	9.8808	26.819
813.3	20.73	6.339	14.391
813.5	22.7946	9.8986	12.896
813.7	32.244	11.526	20.718
813.9	30.1139	7.8909	22.223
814.1	26.9438	9.6028	17.341
814.3	34.053	12.849	21.204
814.5	31.6294	8.4284	23.201
814.7	22.4347	6.1097	16.325
814.9	31.2601	9.6181	21.642
815.1	21.2455	6.1605	15.085
815.3	36.1808	9.1798	27.001
815.5	30.5816	9.8936	20.688
815.7	31.0606	8.9386	22.122
815.9	37.299	15.272	22.027
816.1	31.6181	8.6251	22.993
816.3	37.4945	7.1525	30.342
816.5	27.7628	8.7268	19.036
816.7	30.521	13.479	17.042
816.9	29.0463	6.0813	22.965
817.1	37.3946	9.6676	27.727
817.3	33.244	12.754	20.49
817.5	28.572	10.753	17.819
817.7	34.1406	9.3256	24.815
817.9	26.3641	5.5851	20.779
818.1	27.5573	3.6553	23.902
818.3	28.1927	4.7047	23.488
818.5	20.398	5.864	14.534
818.7	28.66	13.069	15.591
818.9	34.878	12.888	21.99
819.1	29.8167	4.9097	24.907
819.3	25.3298	4.0998	21.23
819.5	26.4322	7.7692	18.663
819.7	34.242	12.978	21.264
819.9	39.8943	9.4943	30.4
820.1	29.5147	6.6947	22.82
820.3	25.6453	8.2923	17.353
820.5	30.7456	8.3016	22.444
820.7	26.654	10.894	15.76
820.9	30.2088	7.4118	22.797
821.1	24.0507	4.2887	19.762
821.3	35.594	12.338	23.256
821.5	26.5136	9.9206	16.593
821.7	26.807	6.607	20.2
821.9	28.5658	1.7598	26.806
822.1	30.3402	9.2272	21.113
822.3	35.2587	8.6657	26.593
822.5	28.1357	7.0007	21.135
822.7	23.2735	8.0035	15.27
822.9	39.0682	6.4012	32.667
823.1	29.2057	5.3547	23.851
823.3	31.852	9.693	22.159
823.5	32.319	11.943	20.376
823.7	29.2682	7.9162	21.352
823.9	37.662	14.099	23.563
824.1	36.6243	9.9793	26.645
824.3	31.336	9.101	22.235
824.5	24.6097	8.6457	15.964
824.7	32.6692	5.7352	26.934
824.9	25.5177	6.9287	18.589
825.1	24.7852	5.9752	18.81
825.3	34.426	10.008	24.418
825.5	38.495	9.693	28.802
825.7	32.2673	7.3603	24.907
825.9	31.7849	8.5039	23.281
826.1	29.2657	6.0377	23.228
826.3	23.6052	3.6892	19.916
826.5	30.4333	6.7583	23.675
826.7	30.507	5.498	25.009
826.9	35.375	11.684	23.691
827.1	28.1096	6.4936	21.616
827.3	35.6327	8.2847	27.348
827.5	29.0004	9.9414	19.059
827.7	31.5836	7.8136	23.77
827.9	24.215	10.244	13.971
828.1	25.8516	8.9626	16.889
828.3	28.2408	9.5018	18.739
828.5	25.5748	6.1888	19.386
828.7	35.3984	9.5134	25.885
828.9	55.279	17.04	38.239
829.1	26.5455	9.0575	17.488
829.3	25.6833	3.2393	22.444
829.5	23.3047	9.4667	13.838
829.7	31.8897	7.3467	24.543
829.9	34.153	7.379	26.774
830.1	25.7081	3.0111	22.697
830.3	24.4035	4.4275	19.976
830.5	29.392	10.436	18.956
830.7	26.329	7.227	19.102
830.9	33.2305	5.4635	27.767
831.1	21.8349	3.4719	18.363
831.3	35.4276	8.1356	27.292
831.5	27.635	12.511	15.124
831.7	27.9553	7.6993	20.256
831.9	29.9558	6.3468	23.609
832.1	36.2435	3.6945	32.549
832.3	23.8456	5.3666	18.479
832.5	22.883	4.392	18.491
832.7	26.258	6.786	19.472
832.9	31.8956	9.5346	22.361
833.1	42.8708	9.4218	33.449
833.3	37.541	11.012	26.529
833.5	30.0532	4.5862	25.467
833.7	32.3567	6.5767	25.78
833.9	33.5164	9.0724	24.444
834.1	20.6631	9.8801	10.783
834.3	28.237	10.397	17.84
834.5	20.0891	5.3891	14.7
834.7	27.059	8.622	18.437
834.9	29.55	12.693	16.857
835.1	28.9396	9.1656	19.774
835.3	34.511	10.845	23.666
835.5	27.9895	6.5375	21.452
835.7	21.0019	1.3749	19.627
835.9	26.4302	4.4052	22.025
836.1	26.4039	7.9369	18.467
836.3	30.3757	7.4597	22.916
836.5	31.193	11.451	19.742
836.7	30.833	10.626	20.207
836.9	30.5673	8.2463	22.321
837.1	29.0243	8.5303	20.494
837.3	26.2817	7.0187	19.263
837.5	26.9946	7.9146	19.08
837.7	27.3284	9.2034	18.125
837.9	24.5842	7.8102	16.774
838.1	34.382	11.324	23.058
838.3	24.6483	6.3153	18.333
838.5	28.5429	8.6349	19.908
838.7	32.247	11.788	20.459
838.9	27.8518	7.2618	20.59
839.1	32.406	11.059	21.347
839.3	25.1264	6.6204	18.506
839.5	28.9188	5.1078	23.811
839.7	34.532	9.207	25.325
839.9	31.319	12.189	19.13
840.1	26.6719	7.2259	19.446
840.3	22.1943	6.8773	15.317
840.5	20.0736	4.3246	15.749
840.7	33.4455	7.1195	26.326
840.9	33.073	13.287	19.786
841.1	26.8402	5.0612	21.779
841.3	26.4666	5.4846	20.982
841.5	26.113	5.78	20.333
841.7	28.9979	9.3099	19.688
841.9	20.9957	5.0237	15.972
842.1	31.9416	7.2556	24.686
842.3	23.6926	4.1096	19.583
842.5	25.0327	5.2477	19.785
842.7	21.1395	7.4715	13.668
842.9	29.5341	7.5791	21.955
843.1	26.7555	6.5885	20.167
843.3	25.7083	6.6453	19.063
843.5	25.2096	7.1856	18.024
843.7	26.7932	7.2862	19.507
843.9	30.987	9.024	21.963
844.1	39.286	11.594	27.692
844.3	32.817	11.582	21.235
844.5	29.0446	6.6706	22.374
844.7	34.59	12.738	21.852
844.9	34.56	10.255	24.305
845.1	29.965	6.44	23.525
845.3	29.854	10.549	19.305
845.5	33.0812	8.0472	25.034
845.7	20.9304	4.9584	15.972
845.9	25.5845	9.8645	15.72
846.1	26.9713	9.7043	17.267
846.3	28.7242	7.7752	20.949
846.5	30.8614	9.4364	21.425
846.7	29.291	10.978	18.313
846.9	23.9006	4.6646	19.236
847.1	30.2067	8.3657	21.841
847.3	24.9668	6.8958	18.071
847.5	25.1671	5.4931	19.674
847.7	28.0742	9.9652	18.109
847.9	31.0554	7.7094	23.346
848.1	26.369	5.21	21.159
848.3	27.7234	9.5504	18.173
848.5	26.3582	7.1752	19.183
848.7	25.3642	7.7742	17.59
848.9	21.3874	6.9014	14.486
849.1	26.089	10.563	15.526
849.3	31.2743	9.5143	21.76
849.5	24.4677	5.8947	18.573
849.7	27.0992	4.0052	23.094
849.9	18.4718	4.5978	13.874
850.1	29.4137	6.3127	23.101
850.3	21.8259	6.1759	15.65
850.5	29.4969	7.5819	21.915
850.7	31.7582	6.6212	25.137
850.9	25.5726	5.3706	20.202
851.1	27.8765	1.5565	26.32
851.3	24.6674	3.3384	21.329
851.5	30.3775	5.7025	24.675
851.7	28.5848	8.8648	19.72
851.9	26.5415	7.4435	19.098
852.1	24.4464	7.1454	17.301
852.3	30.1978	8.9168	21.281
852.5	23.2242	8.3032	14.921
852.7	34.5807	9.9027	24.678
852.9	30.2401	7.3491	22.891
853.1	23.81	4.86	18.95
853.3	25.637	4.572	21.065
853.5	27.0144	6.2184	20.796
853.7	24.509	10.519	13.99
853.9	25.7883	6.7633	19.025
854.1	31.7068	7.0218	24.685
854.3	36.725	11.273	25.452
854.5	20.1694	4.0104	16.159
854.7	31.1812	6.3072	24.874
854.9	22.24414	0.93714	21.307
855.1	20.6048	6.5708	14.034
855.3	25.0359	5.6799	19.356
855.5	23.9995	7.8075	16.192
855.7	30.548	11.239	19.309
855.9	15.9404	4.0714	11.869
856.1	26.0969	5.0579	21.039
856.3	22.7794	3.6474	19.132
856.5	28.425	8.109	20.316
856.7	25.606	6.762	18.844
856.9	29.911	10.347	19.564
857.1	31.7578	6.4128	25.345
857.3	35.6003	4.9513	30.649
857.5	25.1355	2.9395	22.196
857.7	25.1758	7.4208	17.755
857.9	26.5334	5.4074	21.126
858.1	32.2753	4.4943	27.781
858.3	19.7102	2.3762	17.334
858.5	29.7831	7.7121	22.071
858.7	20.043	4.821	15.222
858.9	28.1336	4.5886	23.545
859.1	32.5319	7.7099	24.822
859.3	23.9562	4.9782	18.978
859.5	33.6337	6.8707	26.763
859.7	34.756	14.819	19.937
859.9	21.8822	7.8572	14.025
860.1	28.0739	6.3589	21.715
860.3	25.0793	6.8853	18.194
860.5	31.056	7.758	23.298
860.7	24.9068	4.8388	20.068
860.9	27.8746	9.6006	18.274
861.1	23.6498	7.0958	16.554
861.3	22.8947	6.5367	16.358
861.5	21.4353	5.9563	15.479
861.7	25.2334	9.2514	15.982
861.9	28.551	11.435	17.116
862.1	25.7236	4.2666	21.457
862.3	23.4325	5.9555	17.477
862.5	31.3799	7.6879	23.692
862.7	25.2211	9.7131	15.508
862.9	28.053	7.221	20.832
863.1	27.6146	5.7156	21.899
863.3	23.7186	7.3576	16.361
863.5	25.5136	9.9556	15.558
863.7	27.361	6.469	20.892
863.9	32.271	12.503	19.768
864.1	27.0462	7.3792	19.667
864.3	24.9217	6.9107	18.011
864.5	24.7297	4.3967	20.333
864.7	25.7655	5.7415	20.024
864.9	33.9784	8.3014	25.677
865.1	31.4092	8.0492	23.36
865.3	24.6188	6.0008	18.618
865.5	24.21	6.813	17.397
865.7	24.817	6.973	17.844
865.9	20.2694	7.4734	12.796
866.1	23.9626	7.5436	16.419
866.3	20.2304	2.4734	17.757
866.5	29.9312	3.0392	26.892
866.7	22.7749	4.6949	18.08
866.9	25.8764	6.2474	19.629
867.1	23.8437	8.1337	15.71
867.3	26.7534	3.7744	22.979
867.5	21.5967	5.7017	15.895
867.7	29.6951	9.5501	20.145
867.9	20.2707	5.6247	14.646
868.1	28.2053	6.2353	21.97
868.3	27.0756	9.9446	17.131
868.5	30.4731	6.8671	23.606
868.7	29.6609	6.9589	22.702
868.9	26.7869	6.9499	19.837
869.1	32.5398	9.1648	23.375
869.3	18.1473	6.8353	11.312
869.5	15.9595	6.2664	9.6931
869.7	22.409	6.692	15.717
869.9	24.3013	8.7893	15.512
870.1	25.8852	2.3222	23.563
870.3	26.7447	6.1117	20.633
870.5	36.013	11.95	24.063
870.7	27.9061	9.5011	18.405
870.9	23.6046	4.8216	18.783
871.1	25.0665	5.8205	19.246
871.3	28.7072	9.2542	19.453
871.5	24.237	10.98	13.257
871.7	23.6632	6.2882	17.375
871.9	21.3507	5.9907	15.36
872.1	24.188	6.187	18.001
872.3	21.526	4.857	16.669
872.5	31.5909	7.5839	24.007
872.7	27.9396	9.0866	18.853
872.9	34.276	11.113	23.163
873.1	30.208	7.074	23.134
873.3	23.8587	6.9217	16.937
873.5	18.5333	4.2843	14.249
873.7	24.0251	9.5781	14.447
873.9	19.8256	7.0526	12.773
874.1	20.7944	8.6374	12.157
874.3	25.3193	9.2633	16.056
874.5	27.98	10.446	17.534
874.7	24.779	5.308	19.471
874.9	26.4797	7.5397	18.94
875.1	23.4334	6.3174	17.116
875.3	24.825	5.048	19.777
875.5	29.9939	6.0439	23.95
875.7	35.186	11.404	23.782
875.9	40.38	10.751	29.629
876.1	26.075	12.887	13.188
876.3	23.121	5.396	17.725
876.5	28.3616	8.3616	20
876.7	22.5678	8.6388	13.929
876.9	28.1248	9.6878	18.437
877.1	18.6338	6.0038	12.63
877.3	22.3579	9.1159	13.242
877.5	22.202	10.721	11.481
877.7	28.2351	5.6721	22.563
877.9	26.4951	9.2611	17.234
878.1	26.6471	7.0171	19.63
878.3	17.6989	4.9059	12.793
878.5	20.9799	3.4279	17.552
878.7	27.6734	7.2024	20.471
878.9	31.3947	6.3167	25.078
879.1	25.2744	3.1744	22.1
879.3	21.4747	3.3127	18.162
879.5	26.7047	6.3487	20.356
879.7	21.7126	4.1476	17.565
879.9	24.828	4.493	20.335
880.1	24.0436	6.5116	17.532
880.3	23.0898	7.5588	15.531
880.5	23.3669	5.1689	18.198
880.7	23.1792	4.0532	19.126
880.9	16.308	3.894	12.414
881.1	26.0399	5.3929	20.647
881.3	30.8286	7.9856	22.843
881.5	29.5582	5.3072	24.251
881.7	20.6982	6.5792	14.119
881.9	25.5923	5.9603	19.632
882.1	20.9765	9.0555	11.921
882.3	20.4108	5.6788	14.732
882.5	23.9817	7.7717	16.21
882.7	27.9574	6.0074	21.95
882.9	28.4084	6.4134	21.995
883.1	28.9857	5.2177	23.768
883.3	31.126	11.241	19.885
883.5	36.727	10.217	26.51
883.7	26.68	10.872	15.808
883.9	28.7797	8.0837	20.696
884.1	21.9163	6.4533	15.463
884.3	19.4516	5.6086	13.843
884.5	29.1743	9.9123	19.262
884.7	26.2621	8.0341	18.228
884.9	29.838	10.334	19.504
885.1	23.4834	4.4874	18.996
885.3	28.7757	7.9137	20.862
885.5	25.7311	6.6401	19.091
885.7	30.123	10.415	19.708
885.9	16.4936	6.655	9.8386
886.1	23.9665	6.3225	17.644
886.3	21.2894	5.3954	15.894
886.5	14.0905	5.0153	9.0752
886.7	13.4091	3.0761	10.333
886.9	20.4901	6.6541	13.836
887.1	23.1998	5.1528	18.047
887.3	25.79	9.662	16.128
887.5	25.9541	5.2431	20.711
887.7	21.1056	7.3866	13.719
887.9	24.9593	3.2553	21.704
888.1	36.494	14.454	22.04
888.3	36.396	13.291	23.105
888.5	27.6613	4.3623	23.299
888.7	13.9239	5.5948	8.3291
888.9	12.2086	2.2499	9.9587
889.1	22.4072	4.0982	18.309
889.3	19.3663	5.1003	14.266
889.5	25.6837	5.4227	20.261
889.7	19.4129	2.1449	17.268
889.9	17.2005	3.8415	13.359
890.1	16.8009	4.0049	12.796
890.3	12.6309	3.2629	9.368
890.5	18.6884	4.3664	14.322
890.7	22.3636	8.0826	14.281
890.9	24.4759	6.0379	18.438
891.1	27.0979	9.1599	17.938
891.3	22.5471	8.7901	13.757
891.5	27.5729	7.9779	19.595
891.7	23.0196	5.5896	17.43
891.9	21.5901	6.5511	15.039
892.1	15.8288	7.4562	8.3726
892.3	21.24	7.666	13.574
892.5	27.1161	8.5921	18.524
892.7	20.6651	4.0491	16.616
892.9	24.6406	6.2506	18.39
893.1	28.9056	8.7166	20.189
893.3	18.1649	4.5089	13.656
893.5	27.1183	6.1333	20.985
893.7	29.4899	7.9119	21.578
893.9	22.6149	8.8049	13.81
894.1	21.4865	4.1295	17.357
894.3	19.5084	4.1974	15.311
894.5	23.5077	7.0557	16.452
894.7	24.3566	9.0736	15.283
894.9	22.7485	3.2565	19.492
895.1	17.2652	4.7682	12.497
895.3	23.9771	3.2251	20.752
895.5	22.0643	7.1973	14.867
895.7	25.6268	9.8608	15.766
895.9	15.6628	3.0808	12.582
896.1	25.5724	8.4114	17.161
896.3	24.3545	7.1915	17.163
896.5	18.6805	3.0245	15.656
896.7	25.113	2.757	22.356
896.9	31.9485	6.6965	25.252
897.1	26.6729	6.3159	20.357
897.3	22.3647	6.6447	15.72
897.5	13.4347	7.4554	5.9793
897.7	14.1736	3.2976	10.876
897.9	18.0229	1.7819	16.241
898.1	23.0989	4.1549	18.944
898.3	21.0173	5.3023	15.715
898.5	29.4019	9.6729	19.729
898.7	22.0848	7.0388	15.046
898.9	22.6764	7.3014	15.375
899.1	29.3195	9.5415	19.778
899.3	18.3493	8.3483	10.001
899.5	17.197	5.426	11.771
899.7	24.8255	7.6125	17.213
899.9	26.2348	8.1028	18.132
900.1	19.7966	7.9206	11.876
900.3	21.6143	5.5593	16.055
900.5	23.5573	4.4993	19.058
900.7	28.0005	5.8135	22.187
900.9	22.8928	7.5148	15.378
901.1	26.5875	3.9925	22.595
901.3	22.669	4.367	18.302
901.5	24.3291	3.3431	20.986
901.7	32.5678	8.8058	23.762
901.9	23.9987	6.3007	17.698
902.1	23.7918	4.7458	19.046
902.3	22.532	6.471	16.061
902.5	34.6261	8.1061	26.52
902.7	21.9199	3.1539	18.766
902.9	25.8328	8.7168	17.116
903.1	22.4739	6.6759	15.798
903.3	20.7297	5.2207	15.509
903.5	15.1522	3.8942	11.258
903.7	28.6513	8.0413	20.61
903.9	22.8195	9.5985	13.221
904.1	14.6302	4.3522	10.278
904.3	31.4541	6.0801	25.374
904.5	20.9298	9.2088	11.721
904.7	19.9985	6.3255	13.673
904.9	22.3539	3.1979	19.156
905.1	25.9008	9.2298	16.671
905.3	20.4945	5.3975	15.097
905.5	22.9326	6.5006	16.432
905.7	19.8942	6.5932	13.301
905.9	28.938	12.726	16.212
906.1	21.5307	5.2207	16.31
906.3	26.5345	5.7685	20.766
906.5	30.7643	7.8733	22.891
906.7	24.2037	6.8877	17.316
906.9	22.6871	9.8431	12.844
907.1	29.8862	9.5062	20.38
907.3	26.535	10.013	16.522
907.5	21.1512	5.8472	15.304
907.7	22.5444	6.8664	15.678
907.9	15.9652	2.7642	13.201
908.1	16.4278	4.5368	11.891
908.3	17.4829	3.2369	14.246
908.5	23.4793	2.6843	20.795
908.7	22.6459	6.8279	15.818
908.9	20.9695	4.9705	15.999
909.1	26.1899	9.7759	16.414
909.3	24.8633	9.3213	15.542
909.5	25.1659	7.0689	18.097
909.7	25.5281	5.1701	20.358
909.9	23.922	7.419	16.503
910.1	21.4023	5.4103	15.992
910.3	24.259	6.602	17.657
910.5	16.3813	3.7413	12.64
910.7	23.5681	3.5101	20.058
910.9	25.1648	5.2818	19.883
911.1	27.7278	8.3058	19.422
911.3	36.9161	8.9001	28.016
911.5	26.8689	7.4789	19.39
911.7	24.5943	5.2663	19.328
911.9	20.8885	6.9835	13.905
912.1	29.3295	6.8115	22.518
912.3	20.3801	2.6541	17.726
912.5	21.9893	3.5603	18.429
912.7	15.0383	6.9717	8.0666
912.9	27.311	10.729	16.582
913.1	16.4611	4.9271	11.534
913.3	11.3534	2.011	9.3424
913.5	17.3086	2.7856	14.523
913.7	25.5376	8.1306	17.407
913.9	19.4337	3.9437	15.49
914.1	19.3808	7.2608	12.12
914.3	26.52	7.685	18.835
914.5	19.019	6.907	12.112
914.7	22.6527	4.9237	17.729
914.9	23.826	3.656	20.17
915.1	24.6447	4.9607	19.684
915.3	28.914	11.601	17.313
915.5	16.24	4.376	11.864
915.7	24.5332	4.6942	19.839
915.9	12.9328	4.2067	8.7261
916.1	18.7588	4.2358	14.523
916.3	20.4597	4.7647	15.695
916.5	17.9503	3.9803	13.97
916.7	19.7567	6.4267	13.33
916.9	23.6512	6.5242	17.127
917.1	21.3336	7.2296	14.104
917.3	16.0513	6.8743	9.177
917.5	21.5935	6.2295	15.364
917.7	30.7442	6.2502	24.494
917.9	30.4907	4.8757	25.615
918.1	33.339	5.096	28.243
918.3	24.9359	6.2309	18.705
918.5	15.8776	6.4107	9.4669
918.7	22.6539	4.1539	18.5
918.9	16.3256	1.6456	14.68
919.1	21.321	8.188	13.133
919.3	18.8442	3.3712	15.473
919.5	26.7563	5.7923	20.964
919.7	19.9344	6.9954	12.939
919.9	18.8075	4.7885	14.019
920.1	19.2851	7.1201	12.165
920.3	20.7354	5.4674	15.268
920.5	20.3177	4.2907	16.027
920.7	31.1279	7.0429	24.085
920.9	22.8221	4.9681	17.854
921.1	12.2929	3.8911	8.4018
921.3	19.9533	4.3533	15.6
921.5	23.2413	6.4883	16.753
921.7	18.1741	4.2881	13.886
921.9	20.6308	5.5988	15.032
922.1	25.634	3.218	22.416
922.3	13.9269	4.0601	9.8668
922.5	22.4322	2.8242	19.608
922.7	19.6442	3.7332	15.911
922.9	31.5368	4.9808	26.556
923.1	22.6461	8.0211	14.625
923.3	15.7224	6.7309	8.9915
923.5	12.6216	4.0499	8.5717
923.7	18.8734	3.3074	15.566
923.9	17.9646	4.2746	13.69
924.1	24.8409	8.2429	16.598
924.3	23.1604	3.8664	19.294
924.5	22.4629	6.0329	16.43
924.7	15.8767	3.6927	12.184
924.9	25.0811	5.4871	19.594
925.1	22.7913	5.5123	17.279
925.3	21.8442	9.6042	12.24
925.5	25.33	10.487	14.843
925.7	21.8114	8.8074	13.004
925.9	17.899	7.28	10.619
926.1	24.6428	8.1598	16.483
926.3	22.6008	5.7488	16.852
926.5	13.7573	1.7533	12.004
926.7	21.5234	4.5024	17.021
926.9	25.86	8.323	17.537
927.1	19.6776	1.5766	18.101
927.3	16.7772	4.0742	12.703
927.5	15.6685	4.9675	10.701
927.7	18.8976	5.0636	13.834
927.9	20.2262	5.0702	15.156
928.1	18.7709	5.6129	13.158
928.3	20.9233	7.9163	13.007
928.5	18.4294	7.2874	11.142
928.7	18.5371	4.2801	14.257
928.9	17.1576	6.5686	10.589
929.1	12.1075	3.1431	8.9644
929.3	15.4748	2.5238	12.951
929.5	25.634	11.094	14.54
929.7	19.2431	8.9821	10.261
929.9	18.9574	5.9034	13.054
930.1	25.2945	4.2565	21.038
930.3	26.1666	3.8936	22.273
930.5	18.9341	1.7461	17.188
930.7	18.7049	4.6159	14.089
930.9	18.9393	8.5473	10.392
931.1	17.9648	4.1938	13.771
931.3	19.8042	6.9212	12.883
931.5	19.8589	5.9059	13.953
931.7	19.7299	2.8139	16.916
931.9	19.7981	3.4201	16.378
932.1	24.0104	6.7104	17.3
932.3	18.2714	3.7374	14.534
932.5	30.077	10.282	19.795
932.7	11.9878	3.3873	8.6005
932.9	17.5682	1.6952	15.873
933.1	16.5224	4.1754	12.347
933.3	25.8564	5.2234	20.633
933.5	22.4362	4.2392	18.197
933.7	15.1279	4.1409	10.987
933.9	18.2513	6.0803	12.171
934.1	26.5917	8.1607	18.431
934.3	21.233	10.088	11.145
934.5	17.2769	5.4139	11.863
934.7	17.9649	5.4379	12.527
934.9	21.5429	6.3679	15.175
935.1	24.3508	8.0148	16.336
935.3	20.1007	5.8337	14.267
935.5	18.9614	6.5984	12.363
935.7	22.9957	7.8417	15.154
935.9	19.156	7.015	12.141
936.1	18.8153	5.6973	13.118
936.3	25.8614	8.1704	17.691
936.5	22.4843	6.8713	15.613
936.7	17.0954	3.7054	13.39
936.9	25.9964	7.0654	18.931
937.1	17.6309	4.2309	13.4
937.3	23.1738	6.6858	16.488
937.5	19.3784	3.2214	16.157
937.7	19.8182	3.1552	16.663
937.9	20.4	7.417	12.983
938.1	19.4536	3.8116	15.642
938.3	20.9553	1.7733	19.182
938.5	16.3729	5.1059	11.267
938.7	10.913	4.9076	6.0054
938.9	21.0958	7.6038	13.492
939.1	24.8697	6.0787	18.791
939.3	22.4108	7.2478	15.163
939.5	22.8249	7.9269	14.898
939.7	19.191	3.096	16.095
939.9	16.0783	4.2093	11.869
940.1	15.9921	5.2701	10.722
940.3	21.3697	6.3477	15.022
940.5	17.4625	7.6481	9.8144
940.7	20.5066	4.7306	15.776
940.9	23.3968	5.6088	17.788
941.1	15.9469	3.3409	12.606
941.3	20.7496	6.2076	14.542
941.5	16.8998	3.1128	13.787
941.7	18.2295	4.9365	13.293
941.9	16.5114	3.8504	12.661
942.1	20.096	7.697	12.399
942.3	16.5636	4.4406	12.123
942.5	17.3745	3.3685	14.006
942.7	16.6161	3.9281	12.688
942.9	24.2833	7.7243	16.559
943.1	23.5277	5.9387	17.589
943.3	17.0556	2.5636	14.492
943.5	22.465	8.256	14.209
943.7	18.0891	6.1251	11.964
943.9	18.1695	2.6225	15.547
944.1	22.5513	5.1483	17.403
944.3	31.2298	8.9128	22.317
944.5	19.352	6.683	12.669
944.7	18.4701	7.0811	11.389
944.9	18.771	8.094	10.677
945.1	19.1601	5.7741	13.386
945.3	21.6137	3.9507	17.663
945.5	21.7354	7.3384	14.397
945.7	25.6504	9.4124	16.238
945.9	18.7517	7.5947	11.157
946.1	22.5484	6.7974	15.751
946.3	23.4411	4.5101	18.931
946.5	23.9903	4.2313	19.759
946.7	17.9922	4.9112	13.081
946.9	19.5257	3.4357	16.09
947.1	25.3031	5.7641	19.539
947.3	26.1697	6.8387	19.331
947.5	15.9323	4.1453	11.787
947.7	21.0613	6.5923	14.469
947.9	17.4344	6.0064	11.428
948.1	21.3031	4.9021	16.401
948.3	23.0567	4.9247	18.132
948.5	14.4569	5.7821	8.6748
948.7	22.4976	3.5976	18.9
948.9	17.1413	4.2693	12.872
949.1	27.5885	5.7155	21.873
949.3	24.9369	6.2499	18.687
949.5	16.6979	2.1529	14.545
949.7	21.8605	7.1275	14.733
949.9	23.9013	5.1873	18.714
950.1	18.5842	6.2262	12.358
950.3	17.6567	5.0857	12.571
950.5	20.2116	4.6336	15.578
950.7	26.2338	5.9458	20.288
950.9	22.6327	5.2517	17.381
951.1	17.6237	3.6737	13.95
951.3	26.3939	7.7069	18.687
951.5	23.8534	7.5544	16.299
951.7	27.5199	5.6559	21.864
951.9	27.3519	7.8239	19.528
952.1	22.4156	6.0976	16.318
952.3	12.0421	3.6368	8.4053
952.5	18.4698	7.8498	10.62
952.7	25.2881	8.9741	16.314
952.9	25.7437	6.1447	19.599
953.1	22.1468	6.9578	15.189
953.3	17.0532	6.3072	10.746
953.5	18.0551	3.7351	14.32
953.7	15.7798	5.3498	10.43
953.9	14.2444	5.0923	9.1521
954.1	18.3629	5.5289	12.834
954.3	20.5258	4.6308	15.895
954.5	22.823	6.582	16.241
954.7	27.6341	7.9461	19.688
954.9	19.6083	8.3103	11.298
955.1	15.0595	4.9585	10.101
955.3	18.5019	2.6519	15.85
955.5	13.3468	5.459	7.8878
955.7	22.2167	3.2297	18.987
955.9	17.1077	4.9327	12.175
956.1	19.683	6.577	13.106
956.3	20.291	4.665	15.626
956.5	23.0769	5.5719	17.505
956.7	15.6985	4.8355	10.863
956.9	21.0609	6.5669	14.494
957.1	25.1057	6.9287	18.177
957.3	19.0001	5.6381	13.362
957.5	16.3925	3.8465	12.546
957.7	19.4539	3.4249	16.029
957.9	17.9393	5.5183	12.421
958.1	14.1787	4.2748	9.9039
958.3	14.9828	3.6918	11.291
958.5	22.3137	7.3127	15.001
958.7	22.382	9.604	12.778
958.9	19.2742	7.0842	12.19
959.1	19.1608	2.9508	16.21
959.3	19.5936	1.0856	18.508
959.5	12.9458	2.0528	10.893
959.7	15.0545	4.3945	10.66
959.9	14.9207	6.0904	8.8303
960.1	13.7219	7.2647	6.4572
960.3	16.521	7.5593	8.9617
960.5	10.3252	4.13	6.1952
960.7	14.7131	3.2851	11.428
960.9	15.1467	3.5347	11.612
961.1	13.8593	2.9983	10.861
961.3	13.0652	2.6332	10.432
961.5	15.158	1.78	13.378
961.7	23.0812	5.7682	17.313
961.9	24.534	10.663	13.871
962.1	22.6488	7.8988	14.75
962.3	18.8596	4.2306	14.629
962.5	20.3874	3.1974	17.19
962.7	16.9579	2.5079	14.45
962.9	29.7474	8.9704	20.777
963.1	17.4959	6.1059	11.39
963.3	23.0491	7.5111	15.538
963.5	18.3282	3.6632	14.665
963.7	21.2528	3.1338	18.119
963.9	18.6144	5.3544	13.26
964.1	19.6273	5.8293	13.798
964.3	23.573	12.392	11.181
964.5	16.9522	7.6652	9.287
964.7	18.6298	2.4858	16.144
964.9	15.5142	5.0262	10.488
965.1	18.5076	5.0856	13.422
965.3	14.2178	2.8868	11.331
965.5	21.5643	6.6323	14.932
965.7	20.4838	3.4498	17.034
965.9	20.5518	5.0798	15.472
966.1	17.5891	5.7631	11.826
966.3	18.6202	4.7342	13.886
966.5	22.6879	6.9539	15.734
966.7	15.5606	4.2626	11.298
966.9	14.3568	2.5258	11.831
967.1	17.6065	4.6025	13.004
967.3	17.1829	5.2089	11.974
967.5	19.7998	4.3888	15.411
967.7	19.4983	4.5263	14.972
967.9	20.6733	5.1213	15.552
968.1	18.9865	6.1295	12.857
968.3	19.1075	3.2425	15.865
968.5	12.794	4.8696	7.9244
968.7	21.3216	3.4776	17.844
968.9	21.8621	2.9181	18.944
969.1	20.2405	7.2725	12.968
969.3	19.742	7.724	12.018
969.5	17.0895	10.232	6.8575
969.7	17.1771	1.8391	15.338
969.9	17.622	4.243	13.379
970.1	11.8319	6.0048	5.8271
970.3	15.5625	5.8335	9.729
970.5	16.8116	2.9186	13.893
970.7	22.8374	4.5714	18.266
970.9	25.5156	5.8916	19.624
971.1	10.8494	1.2754	9.574
971.3	10.1189	3.1417	6.9772
971.5	12.7143	6.5015	6.2128
971.7	20.1998	4.1768	16.023
971.9	17.8647	8.1304	9.7343
972.1	24.509	11.3	13.209
972.3	19.8341	4.6201	15.214
972.5	16.1895	3.5605	12.629
972.7	14.3076	2.9936	11.314
972.9	10.6776	3.4211	7.2565
973.1	19.6031	6.1271	13.476
973.3	20.6143	6.8763	13.738
973.5	15.9391	6.8991	9.04
973.7	13.7408	1.9768	11.764
973.9	19.6385	5.4785	14.16
974.1	14.3643	4.0033	10.361
974.3	13.1331	3.1341	9.999
974.5	21.5165	5.4455	16.071
974.7	19.7455	7.5435	12.202
974.9	11.1687	4.5853	6.5834
975.1	16.7067	3.9067	12.8
975.3	18.5607	3.9797	14.581
975.5	16.4445	2.7745	13.67
975.7	19.8932	4.5872	15.306
975.9	13.5139	2.0869	11.427
976.1	14.5429	3.8219	10.721
976.3	15.8995	1.4745	14.425
976.5	17.6425	3.9705	13.672
976.7	15.478	1.744	13.734
976.9	17.1213	2.5323	14.589
977.1	17.8259	6.0369	11.789
977.3	19.6856	6.3866	13.299
977.5	17.326	4.372	12.954
977.7	18.7301	5.8441	12.886
977.9	16.9805	1.7785	15.202
978.1	15.7402	5.9358	9.8044
978.3	14.9603	1.3003	13.66
978.5	17.5103	3.6603	13.85
978.7	17.8943	4.7923	13.102
978.9	18.063	8.0876	9.9754
979.1	15.7763	5.0453	10.731
979.3	16.5859	4.1959	12.39
979.5	24.969	10.675	14.294
979.7	24.077	5.778	18.299
979.9	21.8919	5.4399	16.452
980.1	16.8564	4.4234	12.433
980.3	17.362	4.724	12.638
980.5	14.7447	5.6245	9.1202
980.7	19.6236	5.3676	14.256
980.9	15.2608	4.0268	11.234
981.1	22.1218	8.5428	13.579
981.3	23.5797	8.8327	14.747
981.5	16.9427	5.3237	11.619
981.7	20.6437	3.8227	16.821
981.9	22.8592	6.7722	16.087
982.1	10.6934	1.51	9.1834
982.3	13.8831	4.8855	8.9976
982.5	18.5244	5.4944	13.03
982.7	13.9437	4.5108	9.4329
982.9	17.9322	4.4252	13.507
983.1	24.3613	5.8533	18.508
983.3	13.6356	2.0406	11.595
983.5	15.6197	2.3177	13.302
983.7	17.556	5.229	12.327
983.9	16.3101	6.6767	9.6334
984.1	21.2226	7.3356	13.887
984.3	20.4699	8.4179	12.052
984.5	23.6375	9.4895	14.148
984.7	19.4609	7.8899	11.571
984.9	22.5326	6.3856	16.147
985.1	18.1043	6.8523	11.252
985.3	16.5695	5.0875	11.482
985.5	17.2479	5.5699	11.678
985.7	23.1556	7.2626	15.893
985.9	21.4937	4.6217	16.872
986.1	16.6837	6.6107	10.073
986.3	13.9946	5.6695	8.3251
986.5	10.7731	1.3558	9.4173
986.7	17.5051	3.4531	14.052
986.9	14.5591	3.0011	11.558
987.1	9.2628	1.7332	7.5296
987.3	14.9158	2.0058	12.91
987.5	12.7845	5.6395	7.145
987.7	20.1578	5.9448	14.213
987.9	14.7549	3.6229	11.132
988.1	11.5715	4.8619	6.7096
988.3	9.7668	2.3849	7.3819
988.5	15.0227	3.6917	11.331
988.7	19.4823	5.9333	13.549
988.9	19.9223	6.9603	12.962
989.1	19.8854	7.8044	12.081
989.3	20.7965	5.0695	15.727
989.5	17.3417	5.3047	12.037
989.7	12.3693	2.8363	9.533
989.9	16.6436	2.9416	13.702
990.1	15.6678	3.9088	11.759
990.3	20.495	3.894	16.601
990.5	24.6231	8.0721	16.551
990.7	16.8514	7.3338	9.5176
990.9	24.3357	8.4567	15.879
991.1	22.539	4.333	18.206
991.3	23.3207	6.4387	16.882
991.5	22.5823	4.5613	18.021
991.7	16.9	2.068	14.832
991.9	18.8239	8.6569	10.167
992.1	22.6389	4.4999	18.139
992.3	19.73	6.29	13.44
992.5	20.7107	8.0077	12.703
992.7	19.9381	7.7761	12.162
992.9	16.2737	6.6601	9.6136
993.1	12.8419	4.0411	8.8008
993.3	15.6368	6.2889	9.3479
993.5	15.1121	3.7111	11.401
993.7	14.6829	2.5129	12.17
993.9	18.7657	3.2867	15.479
994.1	14.6564	6.6299	8.0265
994.3	21.2994	6.5004	14.799
994.5	16.4648	4.3798	12.085
994.7	22.711	5.373	17.338
994.9	17.4854	3.3844	14.101
995.1	18.9608	3.7878	15.173
995.3	17.8809	4.4819	13.399
995.5	18.3894	5.0584	13.331
995.7	16.5176	6.4706	10.047
995.9	18.205	4.961	13.244
996.1	22.678	9.837	12.841
996.3	17.0737	4.8247	12.249
996.5	14.3111	2.6971	11.614
996.7	18.506	4.566	13.94
996.9	19.2387	6.4947	12.744
997.1	18.6327	3.7537	14.879
997.3	12.6458	1.0178	11.628
997.5	13.0698	2.1628	10.907
997.7	11.2482	3.8194	7.4288
997.9	13.4209	4.0454	9.3755
998.1	19.492	6.554	12.938
998.3	15.4763	6.2768	9.1995
998.5	14.1287	4.295	9.8337
998.7	18.6695	4.8155	13.854
998.9	19.9506	4.4156	15.535
999.1	21.7728	3.4228	18.35
999.3	11.9458	3.175	8.7708
999.5	16.6219	2.6099	14.012
999.7	15.3517	1.8607	13.491
999.9	13.3515	4.0208	9.3307
1000.1	13.937	4.1945	9.7425
1000.3	14.5691	3.3141	11.255
1000.5	11.461	2.6792	8.7818
1000.7	11.3132	4.2362	7.077
1000.9	10.7274	2.4279	8.2995
1001.1	17.2211	5.6731	11.548
1001.3	13.4	1.913	11.487
1001.5	9.5854	3.6727	5.9127
1001.7	16.0089	6.5831	9.4258
1001.9	22.2785	7.6165	14.662
1002.1	16.9733	10.533	6.4403
1002.3	16.0604	5.9074	10.153
1002.5	12.869	1.508	11.361
1002.7	18.2598	5.4838	12.776
1002.9	18.2867	3.7507	14.536
1003.1	22.9896	4.1256	18.864
1003.3	19.2463	7.5753	11.671
1003.5	15.315	4.439	10.876
1003.7	11.4528	4.8416	6.6112
1003.9	25.8728	5.4218	20.451
1004.1	12.9402	2.0542	10.886
1004.3	21.4451	6.1091	15.336
1004.5	23.3907	6.2317	17.159
1004.7	14.2859	4.2882	9.9977
1004.9	7.4434	1.9288	5.5146
1005.1	16.9616	5.6706	11.291
1005.3	15.1459	2.1919	12.954
1005.5	16.6803	3.3303	13.35
1005.7	21.1602	8.8562	12.304
1005.9	8.9011	2.8897	6.0114
1006.1	14.3584	3.5474	10.811
1006.3	16.0785	4.9295	11.149
1006.5	15.881	5.258	10.623
1006.7	16.3674	5.3264	11.041
1006.9	21.2182	5.2062	16.012
1007.1	14.8878	1.7728	13.115
1007.3	16.4046	4.6026	11.802
1007.5	17.3396	4.9216	12.418
1007.7	12.6967	3.0754	9.6213
1007.9	14.7424	2.9084	11.834
1008.1	21.2133	3.0963	18.117
1008.3	17.0566	4.9616	12.095
1008.5	12.6107	4.8517	7.759
1008.7	16.7878	4.0788	12.709
1008.9	11.8488	2.0052	9.8436
1009.1	24.3068	4.7718	19.535
1009.3	20.5516	2.8206	17.731
1009.5	17.4757	1.8027	15.673
1009.7	22.5973	6.1063	16.491
1009.9	14.4653	6.2517	8.2136
1010.1	13.3573	0.7663	12.591
1010.3	10.38294	0.95094	9.432
1010.5	21.2415	4.9005	16.341
1010.7	13.6754	4.9909	8.6845
1010.9	15.2672	4.1132	11.154
1011.1	13.1549	3.5546	9.6003
1011.3	21.2273	7.1553	14.072
1011.5	22.2014	6.5754	15.626
1011.7	13.078	5.2901	7.7879
1011.9	15.1495	3.0785	12.071
1012.1	14.5524	6.0858	8.4666
1012.3	10.9937	3.3201	7.6736
1012.5	14.9638	4.0038	10.96
1012.7	18.3353	6.3433	11.992
1012.9	11.621	3.6163	8.0047
1013.1	12.1794	3.7349	8.4445
1013.3	20.5622	3.5432	17.019
1013.5	19.0539	8.7759	10.278
1013.7	12.2512	3.9673	8.2839
1013.9	19.6742	4.0232	15.651
1014.1	11.4024	1.9768	9.4256
1014.3	12.4692	3.4021	9.0671
1014.5	15.2193	3.7303	11.489
1014.7	10.8075	3.3447	7.4628
1014.9	13.9872	3.5942	10.393
1015.1	18.5739	3.4469	15.127
1015.3	13.6603	2.1713	11.489
1015.5	13.2395	2.2715	10.968
1015.7	20.1443	6.6663	13.478
1015.9	21.1457	4.7277	16.418
1016.1	15.2636	7.8648	7.3988
1016.3	16.6115	4.8775	11.734
1016.5	17.5193	2.8683	14.651
1016.7	15.3164	4.9174	10.399
1016.9	11.8745	3.8765	7.998
1017.1	13.1499	2.5919	10.558
1017.3	15.0981	4.3861	10.712
1017.5	10.1816	2.5848	7.5968
1017.7	13.1953	2.5673	10.628
1017.9	13.3875	2.9595	10.428
1018.1	21.2408	4.9308	16.31
1018.3	11.0437	2.1864	8.8573
1018.5	5.8935	1.3072	4.5863
1018.7	17.8022	5.9352	11.867
1018.9	13.9027	3.9017	10.001
1019.1	10.8864	1.4779	9.4085
1019.3	10.5636	4.1685	6.3951
1019.5	14.7351	5.7088	9.0263
1019.7	13.9065	4.2284	9.6781
1019.9	15.2671	5.2071	10.06
1020.1	13.9013	3.0813	10.82
1020.3	17.7656	4.3486	13.417
1020.5	13.4189	1.6689	11.75
1020.7	7.2813	0.0962	7.1851
1020.9	13.0919	3.4651	9.6268
1021.1	12.3531	4.364	7.9891
1021.3	16.033	4.609	11.424
1021.5	15.2061	2.8661	12.34
1021.7	14.7252	2.2922	12.433
1021.9	19.3008	5.6518	13.649
1022.1	17.1921	4.4451	12.747
1022.3	18.8929	3.8619	15.031
1022.5	19.356	8.125	11.231
1022.7	25.182	10.086	15.096
1022.9	23.1228	5.4578	17.665
1023.1	13.5184	5.3603	8.1581
1023.3	13.6246	3.3606	10.264
1023.5	21.6272	7.6442	13.983
1023.7	17.0184	2.7964	14.222
1023.9	19.4556	5.7046	13.751
1024.1	17.7416	2.2856	15.456
1024.3	22.3803	5.2543	17.126
1024.5	15.9214	2.8534	13.068
1024.7	15.1821	5.1781	10.004
1024.9	21.277	7.639	13.638
1025.1	8.9508	1.6828	7.268
1025.3	10.2853	3.776	6.5093
1025.5	11.3989	3.4573	7.9416
1025.7	16.3427	6.1887	10.154
1025.9	11.4606	4.4529	7.0077
1026.1	14.9664	3.4194	11.547
1026.3	10.0782	1.556	8.5222
1026.5	16.3567	5.7907	10.566
1026.7	14.4851	4.8933	9.5918
1026.9	13.7722	4.1566	9.6156
1027.1	14.5518	3.4898	11.062
1027.3	12.2479	3.0578	9.1901
1027.5	7.657	3.6509	4.0061
1027.7	11.6552	5.3363	6.3189
1027.9	15.9175	5.0755	10.842
1028.1	16.4554	5.1844	11.271
1028.3	12.5766	5.6109	6.9657
1028.5	14.7875	4.8243	9.9632
1028.7	13.5784	2.1364	11.442
1028.9	14.0921	1.1961	12.896
1029.1	10.1636	3.324	6.8396
1029.3	15.6358	6.2002	9.4356
1029.5	16.4455	5.3265	11.119
1029.7	17.6751	4.0251	13.65
1029.9	15.1968	2.7918	12.405
1030.1	11.1848	1.6577	9.5271
1030.3	18.8487	7.8667	10.982
1030.5	18.3314	4.2704	14.061
1030.7	10.5547	3.5474	7.0073
1030.9	14.6174	3.6144	11.003
1031.1	8.1554	1.5668	6.5886
1031.3	9.1335	4.4473	4.6862
1031.5	10.7335	2.806	7.9275
1031.7	11.0194	2.714	8.3054
1031.9	15.3513	2.4083	12.943
1032.1	12.4933	4.9368	7.5565
1032.3	16.702	6.164	10.538
1032.5	14.2937	3.2817	11.012
1032.7	17.8274	4.0474	13.78
1032.9	11.4987	2.1801	9.3186
1033.1	11.7624	2.8368	8.9256
1033.3	13.0925	4.6007	8.4918
1033.5	17.0725	3.0475	14.025
1033.7	8.2211	2.1207	6.1004
1033.9	13.8586	4.5734	9.2852
1034.1	12.9587	1.8657	11.093
1034.3	12.3653	2.4811	9.8842
1034.5	13.4556	4.9143	8.5413
1034.7	12.60165	0.87065	11.731
1034.9	19.78	5.228	14.552
1035.1	18.2251	5.1971	13.028
1035.3	18.4141	3.8591	14.555
1035.5	13.5228	1.8958	11.627
1035.7	8.2745	1.3573	6.9172
1035.9	6.6336	0.6427	5.9909
1036.1	18.6196	2.4776	16.142
1036.3	13.4931	2.9541	10.539
1036.5	15.6618	4.2218	11.44
1036.7	17.3996	3.1856	14.214
1036.9	18.5608	6.1598	12.401
1037.1	11.7029	3.0782	8.6247
1037.3	14.0204	3.4104	10.61
1037.5	17.577	3.852	13.725
1037.7	15.882	4.996	10.886
1037.9	9.52679	0.77999	8.7468
1038.1	12.277	3.6176	8.6594
1038.3	9.8494	2.6261	7.2233
1038.5	11.7106	5.1205	6.5901
1038.7	11.8239	4.523	7.3009
1038.9	13.5791	4.1614	9.4177
1039.1	17.5307	3.7697	13.761
1039.3	16.4686	6.1656	10.303
1039.5	18.5093	3.5163	14.993
1039.7	13.3764	3.8208	9.5556
1039.9	16.7294	5.8104	10.919
1040.1	14.8886	3.7316	11.157
1040.3	15.2096	3.4166	11.793
1040.5	15.4507	4.6677	10.783
1040.7	10.3379	3.6331	6.7048
1040.9	15.3827	6.1921	9.1906
1041.1	16.4602	3.6362	12.824
1041.3	11.3148	4.8692	6.4456
1041.5	17.1283	5.4313	11.697
1041.7	10.6503	3.0469	7.6034
1041.9	11.83684	0.55784	11.279
1042.1	10.6484	2.8267	7.8217
1042.3	9.5814	1.6112	7.9702
1042.5	8.9916	2.414	6.5776
1042.7	12.2195	4.002	8.2175
1042.9	16.6231	2.8381	13.785
1043.1	12.9889	3.2536	9.7353
1043.3	14.1256	2.3726	11.753
1043.5	14.323	3.518	10.805
1043.7	11.4224	1.3754	10.047
1043.9	16.6306	2.4416	14.189
1044.1	14.3165	5.0317	9.2848
1044.3	14.8487	2.5857	12.263
1044.5	16.2634	3.2114	13.052
1044.7	14.2798	2.8388	11.441
1044.9	11.3935	2.2031	9.1904
1045.1	13.5507	2.4307	11.12
1045.3	15.9777	2.4767	13.501
1045.5	13.0198	4.9373	8.0825
1045.7	12.0804	4.2804	7.8
1045.9	10.9009	6.6232	4.2777
1046.1	14.4706	2.6646	11.806
1046.3	14.5247	2.6027	11.922
1046.5	13.8332	6.0293	7.8039
1046.7	12.5739	2.0509	10.523
1046.9	7.1862	1.3005	5.8857
1047.1	10.8158	3.0024	7.8134
1047.3	10.3937	2.0507	8.343
1047.5	13.8148	2.5098	11.305
1047.7	20.6275	4.0875	16.54
1047.9	14.767607	0.066607	14.701
1048.1	7.4985	2.4869	5.0116
1048.3	14.4223	2.4453	11.977
1048.5	17.2673	3.4123	13.855
1048.7	18.6249	2.5889	16.036
1048.9	19.1589	5.8529	13.306
1049.1	18.6789	5.6789	13
1049.3	17.8178	6.0478	11.77
1049.5	16.782	4.292	12.49
1049.7	17.0379	4.8119	12.226
1049.9	15.4277	7.8043	7.6234
1050.1	14.3549	6.9688	7.3861
1050.3	13.1163	2.1173	10.999
1050.5	18.1764	5.4514	12.725
1050.7	13.7328	1.3118	12.421
1050.9	12.5552	0.8142	11.741
1051.1	12.6652	3.8486	8.8166
1051.3	13.182	0	13.182
1051.5	10.3945	5.0263	5.3682
1051.7	14.8407	3.2007	11.64
1051.9	12.5474	2.3844	10.163
1052.1	17.1939	6.4389	10.755
1052.3	11.1657	3.5693	7.5964
1052.5	18.7266	3.5646	15.162
1052.7	4.9688	1.3296	3.6392
1052.9	10.9612	2.5023	8.4589
1053.1	10.8472	0.9839	9.8633
1053.3	12.4499	1.9179	10.532
1053.5	10.5954	2.0857	8.5097
1053.7	11.8665	4.2528	7.6137
1053.9	13.0706	3.1247	9.9459
1054.1	15.0629	2.6189	12.444
1054.3	16.184	3.828	12.356
1054.5	13.5564	6.2267	7.3297
1054.7	14.9024	2.2154	12.687
1054.9	15.3359	3.9799	11.356
1055.1	17.261	9.015	8.246
1055.3	17.9195	3.7235	14.196
1055.5	18.4919	5.0999	13.392
1055.7	12.2347	1.9117	10.323
1055.9	13.2083	5.0361	8.1722
1056.1	13.2612	1.5752	11.686
1056.3	10.9101	2.3804	8.5297
1056.5	8.6123	2.0083	6.604
1056.7	11.049	0	11.049
1056.9	15.6122	3.2472	12.365
1057.1	10.2292	5.274	4.9552
1057.3	11.8112	3.9286	7.8826
1057.5	7.466	4.202	3.264
1057.7	7.6665	2.4352	5.2313
1057.9	21.2971	5.5761	15.721
1058.1	12.3818	3.9156	8.4662
1058.3	14.0819	3.5049	10.577
1058.5	14.5522	5.5018	9.0504
1058.7	14.4923	3.5073	10.985
1058.9	17.3482	6.8832	10.465
1059.1	16.9081	2.4501	14.458
1059.3	15.0875	4.8405	10.247
1059.5	12.1835	3.745	8.4385
1059.7	18.2727	6.6797	11.593
1059.9	8.1283	1.3089	6.8194
1060.1	13.588387	0.027387	13.561
1060.3	14.2766	4.1346	10.142
1060.5	11.3191	4.8674	6.4517
1060.7	11.8094	2.2251	9.5843
1060.9	10.3835	3.9885	6.395
1061.1	15.2893	8.6887	6.6006
1061.3	12.5439	5.0683	7.4756
1061.5	11.9136	2.9063	9.0073
1061.7	10.8369	3.3885	7.4484
1061.9	14.7126	5.3593	9.3533
1062.1	17.476	2.346	15.13
1062.3	13.30228	0.43028	12.872
1062.5	8.4779	2.0085	6.4694
1062.7	13.3878	3.68	9.7078
1062.9	10.799	1.8812	8.9178
1063.1	8.6955	2.2092	6.4863
1063.3	15.8566	3.3466	12.51
1063.5	12.4752	1.4442	11.031
1063.7	13.73648	0.92348	12.813
1063.9	11.3731	1.686	9.6871
1064.1	19.9062	3.9432	15.963
1064.3	15.3544	3.3564	11.998
1064.5	16.0297	5.6137	10.416
1064.7	12.2043	4.0473	8.157
1064.9	11.09	4.5856	6.5044
1065.1	11.2577	2.8443	8.4134
1065.3	9.1461	1.4975	7.6486
1065.5	9.7468	3.1628	6.584
1065.7	15.4536	3.3716	12.082
1065.9	11.0181	3.7134	7.3047
1066.1	14.5545	3.0375	11.517
1066.3	14.3852	5.864	8.5212
1066.5	11.3988	2.5994	8.7994
1066.7	8.53277	0.75387	7.7789
1066.9	13.6873	1.3543	12.333
1067.1	11.4593	3.6308	7.8285
1067.3	15.1112	3.1482	11.963
1067.5	14.9687	5.6015	9.3672
1067.7	12.9813	3.2412	9.7401
1067.9	14.6292	4.8239	9.8053
1068.1	15.2587	4.5967	10.662
1068.3	11.1951	1.6033	9.5918
1068.5	11.7385	2.097	9.6415
1068.7	18.9639	5.7699	13.194
1068.9	10.6633	3.6362	7.0271
1069.1	6.6749	1.4968	5.1781
1069.3	6.5581	1	5.5581
1069.5	11.886	1	10.886
1069.7	12.2437	1.4387	10.805
1069.9	13.7481	3.3651	10.383
